Data from UWBM104549_Reflection_00014.txt Node
Date: Sun May 02 12:26:08 EDT 2021
User: vgr7
Spectrometer: USB2G7710
Scans to average: 10
Trigger mode: 4
Integration Time (sec): 1.000000E-1
Electric dark correction enabled: true
Boxcar width: 10
XAxis mode: Wavelengths
Number of Pixels in Spectrum: 2048
>>>>>Begin Spectral Data<<<<<
177.721	16
178.105	65.71
178.488	190.27
178.871	185.71
179.254	51.61
179.636	93.26
180.019	-650
180.402	22.22
180.785	52.69
181.168	26.26
181.55	59.76
181.933	54.35
182.316	46.32
182.698	58.14
183.081	58.14
183.463	37.1
183.846	59.73
184.228	18.57
184.611	13.61
184.993	18.73
185.376	21.26
185.758	38.12
186.14	27.9
186.522	31.89
186.904	32.07
187.287	43.91
187.669	54
188.051	55.96
188.433	45.77
188.815	48.05
189.197	48.42
189.579	41.83
189.961	42.54
190.342	35.82
190.724	39.62
191.106	32.94
191.488	35.6
191.869	32.04
192.251	40.54
192.633	40.2
193.014	49.15
193.396	46.93
193.777	45.45
194.159	46.04
194.54	37.62
194.922	34.12
195.303	26.75
195.684	21.72
196.065	15.51
196.447	10.65
196.828	5.45
197.209	3.7
197.59	4.06
197.971	7.22
198.352	17.29
198.733	20.42
199.114	23.13
199.495	21.84
199.876	17.94
200.257	17.21
200.638	19.43
201.018	13.77
201.399	14.55
201.78	12.88
202.16	10.07
202.541	11.79
202.922	14.68
203.302	16.15
203.683	15.25
204.063	21.33
204.444	27.28
204.824	29.84
205.204	35.61
205.585	33.35
205.965	31.58
206.345	29.6
206.725	25.27
207.106	25.81
207.486	27.16
207.866	29.04
208.246	26.68
208.626	25.53
209.006	24.29
209.386	24.26
209.766	21.65
210.145	23.36
210.525	20.99
210.905	21.03
211.285	22.51
211.664	24.68
212.044	23.53
212.424	25.15
212.803	20.79
213.183	13.8
213.562	12.86
213.942	8.08
214.321	2.28
214.701	-4.38
215.08	-4.34
215.459	-8.32
215.838	-11.05
216.218	-10.78
216.597	-9.82
216.976	-7.64
217.355	-5.56
217.734	-4.66
218.113	-4.11
218.492	1.06
218.871	4
219.25	7.24
219.629	7.57
220.008	8.55
220.387	4.24
220.766	1.91
221.144	2.82
221.523	5.42
221.902	8.73
222.28	11.96
222.659	14.02
223.037	15.19
223.416	16.67
223.794	18.24
224.173	17.84
224.551	17.12
224.929	14.76
225.308	13.98
225.686	13.21
226.064	14.39
226.442	13.95
226.821	13.66
227.199	12.85
227.577	10.57
227.955	8.5
228.333	9.18
228.711	9.36
229.089	10.61
229.467	10.09
229.845	11.19
230.222	11.21
230.6	12.1
230.978	12.18
231.356	12.3
231.733	11.72
232.111	11.94
232.488	11.32
232.866	11.11
233.243	10.69
233.621	11.52
233.998	10.84
234.376	10.72
234.753	10.45
235.13	9.9
235.508	10.67
235.885	10.95
236.262	10.79
236.639	11.25
237.016	10.63
237.393	10.35
237.77	9.36
238.147	8.82
238.524	8.44
238.901	7.98
239.278	7.75
239.655	7.64
240.032	7.2
240.409	7.45
240.785	7.42
241.162	7.37
241.539	7.08
241.915	7.16
242.292	6.99
242.668	6.84
243.045	6.68
243.421	6.5
243.798	6.38
244.174	6.24
244.551	6.14
244.927	6.01
245.303	5.94
245.679	5.96
246.056	5.91
246.432	5.89
246.808	5.92
247.184	5.84
247.56	5.74
247.936	5.74
248.312	5.7
248.688	5.72
249.064	5.72
249.44	5.74
249.815	5.67
250.191	5.6
250.567	5.56
250.943	5.59
251.318	5.61
251.694	5.6
252.069	5.54
252.445	5.58
252.82	5.63
253.196	5.66
253.571	5.62
253.947	5.66
254.322	5.62
254.697	5.55
255.073	5.5
255.448	5.52
255.823	5.49
256.198	5.4
256.573	5.28
256.948	5.24
257.323	5.26
257.698	5.25
258.073	5.27
258.448	5.29
258.823	5.25
259.198	5.25
259.573	5.22
259.948	5.28
260.322	5.24
260.697	5.22
261.072	5.2
261.446	5.17
261.821	5.19
262.195	5.15
262.57	5.14
262.944	5.16
263.319	5.14
263.693	5.15
264.067	5.17
264.442	5.21
264.816	5.2
265.19	5.18
265.564	5.21
265.938	5.21
266.313	5.18
266.687	5.09
267.061	5.08
267.435	5.1
267.809	5.03
268.183	5.05
268.556	5.09
268.93	5.12
269.304	5.1
269.678	5.02
270.051	5.04
270.425	5.01
270.799	5.02
271.172	5.04
271.546	5.02
271.919	5.01
272.293	4.96
272.666	4.97
273.04	4.97
273.413	4.86
273.787	4.85
274.16	4.85
274.533	4.89
274.906	4.84
275.279	4.85
275.653	4.84
276.026	4.77
276.399	4.73
276.772	4.7
277.145	4.76
277.518	4.8
277.891	4.83
278.263	4.86
278.636	4.88
279.009	4.9
279.382	4.87
279.755	4.85
280.127	4.86
280.5	4.86
280.872	4.81
281.245	4.9
281.617	4.9
281.99	4.91
282.362	4.94
282.735	4.93
283.107	4.93
283.479	4.98
283.852	5.01
284.224	5.06
284.596	5.05
284.968	5.04
285.34	5.03
285.713	5.07
286.085	5.02
286.457	5.04
286.829	5.01
287.201	5.03
287.572	5.04
287.944	5.09
288.316	5.12
288.688	5.18
289.06	5.19
289.431	5.19
289.803	5.19
290.175	5.22
290.546	5.25
290.918	5.27
291.289	5.24
291.661	5.28
292.032	5.27
292.403	5.31
292.775	5.3
293.146	5.32
293.517	5.33
293.889	5.38
294.26	5.36
294.631	5.39
295.002	5.41
295.373	5.46
295.744	5.45
296.115	5.48
296.486	5.46
296.857	5.46
297.228	5.49
297.599	5.5
297.97	5.5
298.34	5.55
298.711	5.55
299.082	5.59
299.452	5.58
299.823	5.62
300.194	5.65
300.564	5.66
300.935	5.69
301.305	5.68
301.676	5.66
302.046	5.69
302.416	5.7
302.787	5.76
303.157	5.81
303.527	5.87
303.897	5.87
304.267	5.95
304.637	5.99
305.008	6.08
305.378	6.12
305.748	6.2
306.117	6.23
306.487	6.25
306.857	6.32
307.227	6.38
307.597	6.4
307.967	6.45
308.336	6.51
308.706	6.57
309.076	6.6
309.445	6.69
309.815	6.73
310.184	6.77
310.554	6.8
310.923	6.8
311.293	6.82
311.662	6.89
312.031	6.93
312.401	6.98
312.77	6.99
313.139	7.05
313.508	7.04
313.877	7.12
314.246	7.18
314.616	7.21
314.985	7.26
315.353	7.28
315.722	7.32
316.091	7.39
316.46	7.43
316.829	7.53
317.198	7.59
317.567	7.62
317.935	7.7
318.304	7.73
318.672	7.81
319.041	7.83
319.41	7.86
319.778	7.91
320.147	7.96
320.515	8.01
320.883	8.09
321.252	8.1
321.62	8.05
321.988	8.08
322.357	8.12
322.725	8.19
323.093	8.23
323.461	8.24
323.829	8.28
324.197	8.31
324.565	8.33
324.933	8.36
325.301	8.44
325.669	8.46
326.037	8.53
326.405	8.55
326.772	8.61
327.14	8.63
327.508	8.65
327.875	8.67
328.243	8.71
328.61	8.71
328.978	8.8
329.346	8.85
329.713	8.92
330.08	8.96
330.448	8.97
330.815	9.01
331.182	9.09
331.55	9.15
331.917	9.19
332.284	9.25
332.651	9.3
333.018	9.31
333.385	9.34
333.752	9.35
334.119	9.41
334.486	9.43
334.853	9.48
335.22	9.49
335.587	9.52
335.954	9.53
336.32	9.55
336.687	9.56
337.054	9.59
337.42	9.62
337.787	9.64
338.153	9.68
338.52	9.74
338.886	9.78
339.253	9.78
339.619	9.82
339.986	9.83
340.352	9.86
340.718	9.94
341.084	9.97
341.451	9.99
341.817	9.98
342.183	10.04
342.549	10.09
342.915	10.15
343.281	10.23
343.647	10.28
344.013	10.37
344.379	10.43
344.745	10.48
345.11	10.52
345.476	10.56
345.842	10.61
346.208	10.62
346.573	10.63
346.939	10.67
347.304	10.68
347.67	10.69
348.035	10.71
348.401	10.72
348.766	10.77
349.132	10.8
349.497	10.87
349.862	10.9
350.228	10.92
350.593	10.93
350.958	10.93
351.323	10.95
351.688	10.96
352.053	10.96
352.418	11
352.783	11.02
353.148	11.05
353.513	11.04
353.878	11.09
354.243	11.11
354.608	11.11
354.972	11.17
355.337	11.2
355.702	11.21
356.066	11.23
356.431	11.2
356.795	11.23
357.16	11.23
357.524	11.2
357.889	11.19
358.253	11.22
358.618	11.21
358.982	11.24
359.346	11.24
359.71	11.24
360.075	11.23
360.439	11.24
360.803	11.22
361.167	11.24
361.531	11.23
361.895	11.22
362.259	11.22
362.623	11.21
362.987	11.21
363.351	11.21
363.714	11.21
364.078	11.23
364.442	11.22
364.806	11.2
365.169	11.22
365.533	11.22
365.896	11.17
366.26	11.17
366.623	11.14
366.987	11.1
367.35	11.08
367.714	11.07
368.077	11.03
368.44	11.03
368.803	10.97
369.167	10.95
369.53	10.93
369.893	10.91
370.256	10.86
370.619	10.84
370.982	10.78
371.345	10.75
371.708	10.7
372.071	10.67
372.434	10.63
372.797	10.58
373.159	10.54
373.522	10.52
373.885	10.49
374.247	10.44
374.61	10.39
374.973	10.35
375.335	10.29
375.698	10.26
376.06	10.2
376.423	10.16
376.785	10.11
377.147	10.06
377.51	10.02
377.872	9.98
378.234	9.91
378.596	9.87
378.958	9.8
379.321	9.75
379.683	9.7
380.045	9.66
380.407	9.61
380.769	9.57
381.13	9.51
381.492	9.45
381.854	9.39
382.216	9.37
382.578	9.32
382.939	9.29
383.301	9.23
383.663	9.19
384.024	9.16
384.386	9.13
384.747	9.07
385.109	9.03
385.47	8.99
385.832	8.96
386.193	8.93
386.554	8.9
386.916	8.88
387.277	8.85
387.638	8.82
387.999	8.79
388.36	8.76
388.721	8.74
389.082	8.72
389.443	8.69
389.804	8.65
390.165	8.61
390.526	8.57
390.887	8.53
391.248	8.5
391.609	8.46
391.969	8.43
392.33	8.39
392.691	8.37
393.051	8.33
393.412	8.29
393.772	8.24
394.133	8.2
394.493	8.16
394.854	8.1
395.214	8.05
395.574	8
395.935	7.95
396.295	7.89
396.655	7.83
397.015	7.78
397.376	7.74
397.736	7.7
398.096	7.65
398.456	7.6
398.816	7.56
399.176	7.51
399.535	7.46
399.895	7.42
400.255	7.36
400.615	7.3
400.975	7.27
401.334	7.22
401.694	7.19
402.054	7.14
402.413	7.11
402.773	7.09
403.132	7.06
403.492	7.03
403.851	6.99
404.211	6.97
404.57	6.94
404.929	6.91
405.288	6.88
405.648	6.85
406.007	6.84
406.366	6.82
406.725	6.8
407.084	6.77
407.443	6.76
407.802	6.73
408.161	6.73
408.52	6.72
408.879	6.71
409.238	6.69
409.596	6.68
409.955	6.66
410.314	6.64
410.673	6.61
411.031	6.6
411.39	6.59
411.748	6.59
412.107	6.57
412.465	6.57
412.824	6.56
413.182	6.55
413.54	6.53
413.899	6.51
414.257	6.49
414.615	6.47
414.974	6.46
415.332	6.45
415.69	6.44
416.048	6.42
416.406	6.4
416.764	6.39
417.122	6.38
417.48	6.37
417.838	6.37
418.195	6.36
418.553	6.35
418.911	6.34
419.269	6.32
419.626	6.31
419.984	6.29
420.342	6.27
420.699	6.26
421.057	6.25
421.414	6.24
421.772	6.23
422.129	6.22
422.486	6.19
422.844	6.18
423.201	6.16
423.558	6.14
423.915	6.11
424.273	6.1
424.63	6.07
424.987	6.04
425.344	6.02
425.701	5.99
426.058	5.97
426.415	5.95
426.772	5.92
427.128	5.89
427.485	5.86
427.842	5.84
428.199	5.81
428.555	5.8
428.912	5.77
429.269	5.75
429.625	5.73
429.982	5.72
430.338	5.7
430.695	5.69
431.051	5.69
431.407	5.69
431.764	5.68
432.12	5.68
432.476	5.68
432.832	5.68
433.189	5.69
433.545	5.69
433.901	5.69
434.257	5.68
434.613	5.69
434.969	5.7
435.325	5.71
435.681	5.71
436.036	5.71
436.392	5.72
436.748	5.74
437.104	5.75
437.459	5.76
437.815	5.77
438.171	5.78
438.526	5.78
438.882	5.79
439.237	5.79
439.593	5.8
439.948	5.8
440.304	5.81
440.659	5.81
441.014	5.81
441.369	5.81
441.725	5.81
442.08	5.82
442.435	5.82
442.79	5.82
443.145	5.83
443.5	5.83
443.855	5.82
444.21	5.82
444.565	5.81
444.92	5.8
445.275	5.8
445.629	5.79
445.984	5.78
446.339	5.77
446.693	5.76
447.048	5.75
447.403	5.73
447.757	5.73
448.112	5.72
448.466	5.71
448.82	5.7
449.175	5.68
449.529	5.66
449.883	5.65
450.238	5.62
450.592	5.6
450.946	5.58
451.3	5.56
451.654	5.54
452.008	5.53
452.362	5.51
452.716	5.49
453.07	5.47
453.424	5.46
453.778	5.45
454.132	5.44
454.486	5.43
454.839	5.43
455.193	5.42
455.547	5.42
455.9	5.42
456.254	5.42
456.607	5.43
456.961	5.44
457.314	5.45
457.668	5.46
458.021	5.46
458.375	5.47
458.728	5.47
459.081	5.47
459.434	5.48
459.787	5.49
460.141	5.49
460.494	5.5
460.847	5.5
461.2	5.5
461.553	5.51
461.906	5.51
462.259	5.53
462.611	5.54
462.964	5.54
463.317	5.55
463.67	5.56
464.022	5.57
464.375	5.58
464.728	5.58
465.08	5.6
465.433	5.62
465.785	5.63
466.138	5.65
466.49	5.67
466.843	5.69
467.195	5.7
467.547	5.73
467.899	5.75
468.252	5.77
468.604	5.79
468.956	5.81
469.308	5.83
469.66	5.85
470.012	5.87
470.364	5.88
470.716	5.91
471.068	5.92
471.42	5.94
471.772	5.96
472.123	5.98
472.475	6
472.827	6.01
473.178	6.02
473.53	6.03
473.882	6.04
474.233	6.05
474.585	6.08
474.936	6.09
475.288	6.09
475.639	6.1
475.99	6.11
476.342	6.12
476.693	6.13
477.044	6.12
477.395	6.12
477.746	6.12
478.097	6.11
478.448	6.15
478.8	6.25
479.15	6.4
479.501	6.57
479.852	6.78
480.203	7
480.554	7.23
480.905	7.47
481.255	7.71
481.606	7.92
481.957	8.14
482.307	8.35
482.658	8.54
483.009	8.7
483.359	8.83
483.709	8.94
484.06	9.05
484.41	9.16
484.761	9.26
485.111	9.36
485.461	9.45
485.811	9.54
486.162	9.56
486.512	9.54
486.862	9.48
487.212	9.39
487.562	9.27
487.912	9.13
488.262	8.97
488.612	8.81
488.961	8.64
489.311	8.45
489.661	8.26
490.011	8.07
490.36	7.88
490.71	7.69
491.06	7.48
491.409	7.29
491.759	7.13
492.108	7
492.458	6.89
492.807	6.79
493.157	6.7
493.506	6.61
493.855	6.53
494.204	6.46
494.554	6.4
494.903	6.34
495.252	6.28
495.601	6.25
495.95	6.21
496.299	6.18
496.648	6.16
496.997	6.15
497.346	6.17
497.695	6.21
498.043	6.3
498.392	6.42
498.741	6.55
499.09	6.65
499.438	6.73
499.787	6.8
500.135	6.87
500.484	6.94
500.832	7.03
501.181	7.1
501.529	7.19
501.878	7.29
502.226	7.38
502.574	7.49
502.923	7.59
503.271	7.69
503.619	7.81
503.967	7.94
504.315	8.07
504.663	8.2
505.011	8.33
505.359	8.46
505.707	8.59
506.055	8.73
506.403	8.87
506.751	9.01
507.098	9.15
507.446	9.29
507.794	9.44
508.141	9.58
508.489	9.75
508.837	9.9
509.184	10.05
509.531	10.2
509.879	10.34
510.226	10.49
510.574	10.65
510.921	10.79
511.268	10.95
511.616	11.1
511.963	11.25
512.31	11.41
512.657	11.58
513.004	11.76
513.351	11.95
513.698	12.14
514.045	12.34
514.392	12.54
514.739	12.75
515.086	12.95
515.432	13.15
515.779	13.34
516.126	13.52
516.473	13.71
516.819	13.89
517.166	14.07
517.512	14.24
517.859	14.4
518.205	14.55
518.552	14.71
518.898	14.86
519.245	15.02
519.591	15.17
519.937	15.32
520.283	15.49
520.629	15.66
520.976	15.84
521.322	16.02
521.668	16.21
522.014	16.41
522.36	16.61
522.706	16.83
523.052	17.12
523.398	17.53
523.743	18.05
524.089	18.65
524.435	19.27
524.781	19.93
525.126	20.58
525.472	21.24
525.817	21.86
526.163	22.46
526.509	23
526.854	23.48
527.199	23.88
527.545	24.19
527.89	24.45
528.235	24.7
528.581	24.95
528.926	25.19
529.271	25.43
529.616	25.66
529.961	25.89
530.306	26.09
530.651	26.18
530.996	26.17
531.341	26.1
531.686	25.96
532.031	25.73
532.376	25.43
532.721	25.07
533.065	24.7
533.41	24.42
533.755	24.15
534.099	23.97
534.444	23.89
534.788	23.9
535.133	23.96
535.477	24.03
535.822	24.13
536.166	24.26
536.51	24.41
536.855	24.6
537.199	24.83
537.543	25.09
537.887	25.41
538.231	25.76
538.576	26.12
538.92	26.51
539.264	26.94
539.608	27.38
539.951	27.82
540.295	28.22
540.639	28.5
540.983	28.73
541.327	28.91
541.671	29.1
542.014	29.32
542.358	29.55
542.701	29.76
543.045	29.98
543.389	30.18
543.732	30.37
544.075	30.57
544.419	30.75
544.762	30.9
545.105	31.01
545.449	31.09
545.792	31.15
546.135	31.21
546.478	31.3
546.821	31.43
547.165	31.64
547.508	31.92
547.851	32.25
548.194	32.65
548.536	33.08
548.879	33.4
549.222	33.66
549.565	33.89
549.908	34.14
550.25	34.4
550.593	34.65
550.936	34.92
551.278	35.17
551.621	35.41
551.963	35.67
552.306	35.94
552.648	36.21
552.991	36.47
553.333	36.7
553.675	36.97
554.017	37.2
554.36	37.43
554.702	37.66
555.044	37.88
555.386	38.11
555.728	38.33
556.07	38.57
556.412	38.79
556.754	39.03
557.096	39.28
557.438	39.51
557.78	39.74
558.121	39.98
558.463	40.21
558.805	40.46
559.147	40.69
559.488	40.91
559.83	41.12
560.171	41.34
560.513	41.59
560.854	41.79
561.196	42.04
561.537	42.28
561.878	42.51
562.22	42.75
562.561	42.98
562.902	43.2
563.243	43.43
563.584	43.65
563.925	43.86
564.266	44.04
564.607	44.21
564.948	44.42
565.289	44.59
565.63	44.78
565.971	44.94
566.312	45.11
566.653	45.32
566.993	45.49
567.334	45.67
567.675	45.84
568.015	46.01
568.356	46.18
568.696	46.34
569.037	46.49
569.377	46.67
569.718	46.84
570.058	46.99
570.398	47.14
570.739	47.26
571.079	47.41
571.419	47.55
571.759	47.69
572.099	47.82
572.439	47.96
572.779	48.08
573.119	48.21
573.459	48.31
573.799	48.41
574.139	48.51
574.479	48.61
574.819	48.71
575.158	48.79
575.498	48.88
575.838	48.98
576.177	49.05
576.517	49.11
576.856	49.17
577.196	49.26
577.535	49.35
577.875	49.45
578.214	49.53
578.553	49.62
578.893	49.7
579.232	49.77
579.571	49.84
579.91	49.9
580.25	49.99
580.589	50.1
580.928	50.18
581.267	50.27
581.606	50.36
581.945	50.45
582.283	50.54
582.622	50.64
582.961	50.72
583.3	50.83
583.639	50.93
583.977	51.04
584.316	51.12
584.654	51.21
584.993	51.31
585.332	51.38
585.67	51.47
586.008	51.58
586.347	51.69
586.685	51.81
587.024	51.92
587.362	52.02
587.7	52.11
588.038	52.2
588.376	52.3
588.715	52.39
589.053	52.47
589.391	52.56
589.729	52.61
590.067	52.67
590.404	52.74
590.742	52.85
591.08	52.93
591.418	53.03
591.756	53.08
592.093	53.16
592.431	53.26
592.769	53.31
593.106	53.38
593.444	53.45
593.781	53.49
594.119	53.56
594.456	53.62
594.793	53.67
595.131	53.73
595.468	53.76
595.805	53.79
596.143	53.84
596.48	53.89
596.817	53.93
597.154	54
597.491	54.01
597.828	54.03
598.165	54.04
598.502	54.07
598.839	54.13
599.176	54.19
599.512	54.24
599.849	54.29
600.186	54.34
600.523	54.39
600.859	54.48
601.196	54.53
601.532	54.6
601.869	54.65
602.205	54.72
602.542	54.79
602.878	54.85
603.215	54.92
603.551	54.97
603.887	55.03
604.223	55.05
604.56	55.13
604.896	55.18
605.232	55.25
605.568	55.29
605.904	55.34
606.24	55.36
606.576	55.42
606.912	55.45
607.248	55.49
607.583	55.54
607.919	55.56
608.255	55.6
608.591	55.62
608.926	55.64
609.262	55.62
609.597	55.64
609.933	55.67
610.268	55.66
610.604	55.69
610.939	55.71
611.275	55.74
611.61	55.76
611.945	55.78
612.281	55.81
612.616	55.85
612.951	55.85
613.286	55.88
613.621	55.85
613.956	55.89
614.291	55.93
614.626	55.92
614.961	55.9
615.296	55.91
615.631	55.94
615.966	55.99
616.3	56.03
616.635	56.07
616.97	56.1
617.304	56.16
617.639	56.19
617.973	56.21
618.308	56.24
618.642	56.27
618.977	56.28
619.311	56.28
619.646	56.32
619.98	56.35
620.314	56.38
620.648	56.44
620.983	56.47
621.317	56.49
621.651	56.53
621.985	56.58
622.319	56.6
622.653	56.62
622.987	56.65
623.321	56.67
623.655	56.71
623.988	56.76
624.322	56.8
624.656	56.83
624.99	56.88
625.323	56.89
625.657	56.93
625.99	57
626.324	57.04
626.657	57.05
626.991	57.07
627.324	57.09
627.658	57.1
627.991	57.11
628.324	57.11
628.657	57.15
628.991	57.18
629.324	57.25
629.657	57.26
629.99	57.28
630.323	57.31
630.656	57.32
630.989	57.33
631.322	57.34
631.655	57.32
631.987	57.32
632.32	57.37
632.653	57.4
632.986	57.41
633.318	57.43
633.651	57.43
633.984	57.48
634.316	57.5
634.649	57.53
634.981	57.57
635.313	57.61
635.646	57.6
635.978	57.61
636.31	57.64
636.643	57.67
636.975	57.69
637.307	57.71
637.639	57.74
637.971	57.73
638.303	57.74
638.635	57.8
638.967	57.83
639.299	57.83
639.631	57.83
639.963	57.85
640.295	57.86
640.626	57.89
640.958	57.89
641.29	57.9
641.621	57.91
641.953	57.92
642.285	57.89
642.616	57.95
642.948	58.01
643.279	57.98
643.61	58.01
643.942	58.02
644.273	58.04
644.604	58.07
644.936	58.12
645.267	58.19
645.598	58.23
645.929	58.29
646.26	58.31
646.591	58.34
646.922	58.37
647.253	58.41
647.584	58.44
647.915	58.45
648.245	58.49
648.576	58.54
648.907	58.56
649.238	58.63
649.568	58.64
649.899	58.62
650.229	58.65
650.56	58.68
650.89	58.71
651.221	58.74
651.551	58.75
651.882	58.76
652.212	58.75
652.542	58.73
652.872	58.69
653.203	58.71
653.533	58.73
653.863	58.75
654.193	58.76
654.523	58.81
654.853	58.87
655.183	58.88
655.513	58.92
655.843	58.95
656.172	59
656.502	59.02
656.832	59.04
657.162	59.08
657.491	59.09
657.821	59.12
658.15	59.12
658.48	59.13
658.809	59.19
659.139	59.19
659.468	59.21
659.798	59.23
660.127	59.27
660.456	59.28
660.785	59.28
661.115	59.28
661.444	59.25
661.773	59.24
662.102	59.28
662.431	59.25
662.76	59.22
663.089	59.2
663.418	59.22
663.747	59.23
664.076	59.22
664.404	59.23
664.733	59.23
665.062	59.25
665.39	59.29
665.719	59.25
666.048	59.31
666.376	59.36
666.705	59.43
667.033	59.46
667.362	59.47
667.69	59.51
668.018	59.56
668.347	59.6
668.675	59.63
669.003	59.62
669.331	59.63
669.659	59.7
669.987	59.73
670.315	59.71
670.643	59.76
670.971	59.83
671.299	59.86
671.627	59.89
671.955	59.9
672.283	59.89
672.61	59.9
672.938	59.91
673.266	59.93
673.593	59.98
673.921	59.98
674.249	59.98
674.576	60.01
674.904	60.04
675.231	60.07
675.558	60.13
675.886	60.15
676.213	60.17
676.54	60.17
676.867	60.21
677.195	60.27
677.522	60.29
677.849	60.22
678.176	60.21
678.503	60.26
678.83	60.26
679.157	60.26
679.484	60.32
679.81	60.35
680.137	60.36
680.464	60.34
680.791	60.35
681.117	60.38
681.444	60.38
681.771	60.37
682.097	60.42
682.424	60.4
682.75	60.41
683.077	60.43
683.403	60.49
683.729	60.47
684.056	60.49
684.382	60.48
684.708	60.55
685.034	60.58
685.36	60.58
685.686	60.64
686.012	60.68
686.339	60.67
686.664	60.68
686.99	60.65
687.316	60.67
687.642	60.69
687.968	60.75
688.294	60.75
688.619	60.77
688.945	60.76
689.271	60.78
689.596	60.81
689.922	60.87
690.247	60.9
690.573	60.94
690.898	60.97
691.224	61
691.549	61.03
691.874	61.05
692.2	61.11
692.525	61.14
692.85	61.16
693.175	61.16
693.5	61.22
693.825	61.29
694.15	61.28
694.475	61.24
694.8	61.23
695.125	61.24
695.45	61.23
695.775	61.2
696.099	61.23
696.424	61.26
696.749	61.24
697.073	61.16
697.398	61.15
697.723	61.12
698.047	61.16
698.372	61.14
698.696	61.14
699.02	61.12
699.345	61.1
699.669	61.1
699.993	61.09
700.318	61.06
700.642	61.02
700.966	61.04
701.29	61.03
701.614	61.01
701.938	61.07
702.262	61.07
702.586	61.1
702.91	61.07
703.234	61.02
703.557	61
703.881	61.06
704.205	61.08
704.529	61.07
704.852	61.05
705.176	61.1
705.499	61.06
705.823	61.06
706.146	61.08
706.47	61.06
706.793	61.13
707.117	61.11
707.44	61.15
707.763	61.16
708.086	61.22
708.409	61.22
708.733	61.2
709.056	61.28
709.379	61.25
709.702	61.3
710.025	61.35
710.348	61.43
710.671	61.46
710.993	61.43
711.316	61.46
711.639	61.47
711.962	61.47
712.284	61.53
712.607	61.54
712.93	61.52
713.252	61.56
713.575	61.61
713.897	61.66
714.22	61.66
714.542	61.73
714.864	61.76
715.187	61.8
715.509	61.86
715.831	61.88
716.153	61.91
716.475	61.92
716.798	61.97
717.12	61.95
717.442	61.86
717.764	61.9
718.085	61.96
718.407	61.96
718.729	61.97
719.051	62
719.373	62.03
719.695	62.07
720.016	62.1
720.338	62.09
720.659	62.1
720.981	62.15
721.302	62.1
721.624	62.1
721.945	62.06
722.267	62.01
722.588	62.03
722.909	62.06
723.231	62.04
723.552	62.01
723.873	62.03
724.194	62.14
724.515	62.18
724.836	62.14
725.157	62.09
725.478	62.07
725.799	62.1
726.12	62.06
726.441	62.03
726.762	62.06
727.083	62.03
727.403	62.04
727.724	62.02
728.045	62.09
728.365	62.12
728.686	62.24
729.006	62.29
729.327	62.21
729.647	62.23
729.967	62.23
730.288	62.24
730.608	62.31
730.928	62.3
731.249	62.25
731.569	62.25
731.889	62.26
732.209	62.3
732.529	62.31
732.849	62.3
733.169	62.32
733.489	62.25
733.809	62.22
734.129	62.16
734.448	62.13
734.768	62.05
735.088	61.98
735.408	61.91
735.727	61.8
736.047	61.82
736.366	61.73
736.686	61.77
737.005	61.8
737.325	61.73
737.644	61.74
737.963	61.73
738.283	61.65
738.602	61.66
738.921	61.63
739.24	61.51
739.56	61.61
739.879	61.63
740.198	61.66
740.517	61.78
740.836	61.8
741.155	61.87
741.473	61.9
741.792	61.94
742.111	61.98
742.43	61.99
742.748	61.99
743.067	62.02
743.386	62
743.704	61.99
744.023	61.95
744.341	61.9
744.66	62
744.978	62.09
745.297	62.12
745.615	62.17
745.933	62.27
746.252	62.15
746.57	62.13
746.888	62.12
747.206	62.02
747.524	62.06
747.842	62.03
748.16	62.05
748.478	62.05
748.796	62.04
749.114	62.05
749.432	62.09
749.749	62.09
750.067	62.05
750.385	62.08
750.703	62.06
751.02	62.09
751.338	62.01
751.655	62.04
751.973	62.09
752.29	62.01
752.608	61.99
752.925	62.1
753.242	62.13
753.56	62.2
753.877	62.17
754.194	62.15
754.511	62.19
754.828	62.22
755.145	62.23
755.462	62.24
755.779	62.29
756.096	62.29
756.413	62.42
756.73	62.47
757.047	62.44
757.364	62.6
757.68	62.73
757.997	62.79
758.314	62.84
758.63	62.88
758.947	63.11
759.264	63.24
759.58	63.23
759.896	63.31
760.213	63.33
760.529	63.43
760.846	63.45
761.162	63.44
761.478	63.5
761.794	63.57
762.11	63.65
762.426	63.69
762.743	63.75
763.059	63.8
763.375	63.85
763.69	63.84
764.006	63.86
764.322	63.82
764.638	63.85
764.954	63.83
765.27	63.84
765.585	63.78
765.901	63.73
766.216	63.65
766.532	63.56
766.848	63.58
767.163	63.58
767.478	63.59
767.794	63.54
768.109	63.44
768.424	63.37
768.74	63.3
769.055	63.23
769.37	63.15
769.685	62.95
770	62.82
770.315	62.82
770.63	62.72
770.945	62.79
771.26	62.77
771.575	62.66
771.89	62.46
772.205	62.37
772.52	62.34
772.834	62.35
773.149	62.35
773.464	62.32
773.778	62.31
774.093	62.3
774.407	62.37
774.722	62.49
775.036	62.46
775.351	62.44
775.665	62.5
775.979	62.49
776.293	62.62
776.608	62.69
776.922	62.65
777.236	62.64
777.55	62.54
777.864	62.43
778.178	62.59
778.492	62.68
778.806	62.7
779.12	62.81
779.434	62.82
779.747	62.94
780.061	62.97
780.375	63.02
780.689	63.04
781.002	63.17
781.316	63.14
781.629	63.32
781.943	63.38
782.256	63.39
782.57	63.48
782.883	63.4
783.196	63.47
783.51	63.55
783.823	63.52
784.136	63.6
784.449	63.7
784.762	63.59
785.075	63.72
785.388	63.76
785.701	63.62
786.014	63.72
786.327	63.68
786.64	63.61
786.953	63.68
787.266	63.78
787.578	63.73
787.891	63.75
788.204	63.67
788.516	63.68
788.829	63.81
789.141	63.85
789.454	63.95
789.766	63.88
790.079	63.82
790.391	63.71
790.703	63.71
791.016	63.75
791.328	63.87
791.64	63.8
791.952	63.82
792.264	63.88
792.576	63.96
792.888	63.93
793.2	63.91
793.512	63.85
793.824	63.7
794.136	63.79
794.448	63.76
794.76	63.75
795.071	63.68
795.383	63.51
795.695	63.58
796.006	63.52
796.318	63.64
796.629	63.75
796.941	63.84
797.252	63.75
797.564	63.85
797.875	63.79
798.186	63.95
798.497	63.95
798.809	63.99
799.12	63.93
799.431	63.89
799.742	63.93
800.053	63.84
800.364	63.79
800.675	63.69
800.986	63.9
801.297	64.03
801.608	64.1
801.918	64.34
802.229	64.31
802.54	64.36
802.851	64.4
803.161	64.31
803.472	64.45
803.782	64.64
804.093	64.58
804.403	64.69
804.714	64.55
805.024	64.54
805.334	64.6
805.645	64.52
805.955	64.64
806.265	64.82
806.575	64.89
806.885	65.07
807.195	65.02
807.505	64.76
807.815	64.67
808.125	64.51
808.435	64.33
808.745	64.28
809.055	64.32
809.365	64.39
809.674	64.38
809.984	64.24
810.294	64.19
810.603	63.95
810.913	63.93
811.222	64.04
811.532	64.05
811.841	64.12
812.151	64.22
812.46	64.27
812.769	64.24
813.079	64.15
813.388	64.17
813.697	64.24
814.006	64.25
814.315	64.28
814.624	64.49
814.933	64.62
815.242	64.6
815.551	64.74
815.86	64.67
816.169	64.88
816.478	65.18
816.786	65.02
817.095	65.1
817.404	65.05
817.712	64.97
818.021	64.93
818.33	64.87
818.638	64.85
818.947	64.6
819.255	64.54
819.563	64.63
819.872	64.64
820.18	64.71
820.488	64.84
820.796	64.96
821.105	64.95
821.413	64.9
821.721	64.91
822.029	64.85
822.337	64.93
822.645	64.98
822.953	64.96
823.26	65.02
823.568	65.1
823.876	65.09
824.184	65.05
824.491	65.06
824.799	65.07
825.107	65.09
825.414	65.2
825.722	65.25
826.029	65.27
826.337	65.28
826.644	65.27
826.951	65.24
827.259	65.21
827.566	65.28
827.873	65.32
828.18	65.3
828.488	65.34
828.795	65.24
829.102	65.12
829.409	65.2
829.716	65.16
830.023	65.04
830.329	65.05
830.636	65.09
830.943	65.11
831.25	65.12
831.557	65.13
831.863	65.04
832.17	64.9
832.476	64.92
832.783	64.98
833.089	64.92
833.396	64.98
833.702	64.84
834.009	64.7
834.315	64.64
834.621	64.75
834.928	64.73
835.234	64.86
835.54	64.95
835.846	64.8
836.152	64.88
836.458	65.04
836.764	65.2
837.07	65.33
837.376	65.29
837.682	65.3
837.988	65.33
838.293	65.45
838.599	65.64
838.905	65.63
839.211	65.62
839.516	65.72
839.822	65.7
840.127	65.86
840.433	66.03
840.738	65.97
841.044	66.04
841.349	66.23
841.654	66.18
841.959	66.18
842.265	66.24
842.57	66.07
842.875	65.97
843.18	65.79
843.485	65.85
843.79	65.75
844.095	65.64
844.4	65.77
844.705	65.76
845.01	65.66
845.315	65.61
845.619	65.73
845.924	65.81
846.229	65.74
846.533	65.8
846.838	65.58
847.142	65.81
847.447	65.56
847.751	65.53
848.056	65.44
848.36	65.22
848.664	65.2
848.969	65.69
849.273	65.95
849.577	65.86
849.881	65.61
850.185	65.88
850.489	65.97
850.794	65.78
851.097	65.36
851.401	65.71
851.705	65.62
852.009	65.42
852.313	65.38
852.617	65.33
852.92	65.41
853.224	65.23
853.528	65.35
853.831	65.29
854.135	65.12
854.438	65.17
854.742	65.51
855.045	65.52
855.349	65.27
855.652	65.04
855.955	65.18
856.259	65.12
856.562	65.23
856.865	64.99
857.168	64.72
857.471	65.15
857.774	64.83
858.077	64.48
858.38	64.47
858.683	64.93
858.986	65.08
859.289	65.09
859.592	65.48
859.894	65.22
860.197	65.61
860.5	65.56
860.802	65.76
861.105	65.32
861.407	65.11
861.71	65.18
862.012	65.09
862.315	65.11
862.617	65.12
862.919	65.15
863.222	65.43
863.524	65.87
863.826	65.8
864.128	65.76
864.43	66.3
864.732	66.6
865.034	66.52
865.336	66.25
865.638	66.38
865.94	66.2
866.242	65.78
866.544	65.59
866.846	65.81
867.147	65.69
867.449	65.94
867.751	65.96
868.052	66.29
868.354	66.36
868.655	66.51
868.957	66.55
869.258	65.84
869.56	65.91
869.861	65.72
870.162	65.48
870.463	65.59
870.765	65.71
871.066	65.19
871.367	64.92
871.668	65.17
871.969	65.12
872.27	65.39
872.571	65.85
872.872	65.73
873.173	65.35
873.473	65.01
873.774	65.15
874.075	65.23
874.376	64.86
874.676	64.78
874.977	64.49
875.277	64.75
875.578	65.48
875.878	65.41
876.179	65.38
876.479	65.5
876.78	65.52
877.08	65.23
877.38	65.67
877.68	65.6
877.981	65.55
878.281	65.4
878.581	65.06
