Data from UWBM37214_Reflection_00011.txt Node
Date: Sun May 02 14:04:53 EDT 2021
User: vgr7
Spectrometer: USB2G7710
Scans to average: 10
Trigger mode: 4
Integration Time (sec): 1.000000E-1
Electric dark correction enabled: true
Boxcar width: 20
XAxis mode: Wavelengths
Number of Pixels in Spectrum: 2048
>>>>>Begin Spectral Data<<<<<
177.721	322.37
178.105	444.07
178.488	-4750
178.871	518.75
179.254	129.77
179.636	44.29
180.019	40.41
180.402	42.09
180.785	33.43
181.168	34.74
181.55	25.95
181.933	32.81
182.316	26.89
182.698	22.36
183.081	20.47
183.463	19.2
183.846	18.24
184.228	20.94
184.611	20.39
184.993	19.63
185.376	18.76
185.758	20.69
186.14	21.82
186.522	21.14
186.904	16.74
187.287	17.1
187.669	14.84
188.051	11
188.433	10.2
188.815	8.7
189.197	9.83
189.579	10.85
189.961	10.99
190.342	9.4
190.724	12.03
191.106	11.67
191.488	12.99
191.869	11.39
192.251	10.59
192.633	11.77
193.014	12.64
193.396	9.62
193.777	10.61
194.159	12.36
194.54	12.22
194.922	11.52
195.303	11.92
195.684	11.46
196.065	10.8
196.447	12.06
196.828	11.41
197.209	12.46
197.59	8.54
197.971	7.87
198.352	9.74
198.733	10.32
199.114	11.01
199.495	11.7
199.876	10.64
200.257	10.32
200.638	9
201.018	10.9
201.399	11.16
201.78	10.13
202.16	10.11
202.541	10.55
202.922	10.73
203.302	11.85
203.683	13.96
204.063	13.69
204.444	13.84
204.824	13.13
205.204	11.29
205.585	11.13
205.965	10.47
206.345	9.1
206.725	8.91
207.106	7.87
207.486	8.78
207.866	9.11
208.246	7.77
208.626	6.95
209.006	6.96
209.386	6.7
209.766	5.67
210.145	5.59
210.525	5.98
210.905	7.57
211.285	6.84
211.664	6.1
212.044	4.01
212.424	3.7
212.803	3.43
213.183	4.73
213.562	5.85
213.942	5.23
214.321	3.78
214.701	2.57
215.08	3.59
215.459	3.77
215.838	2.95
216.218	3.99
216.597	2.05
216.976	2.28
217.355	3.14
217.734	3.63
218.113	3.61
218.492	3.44
218.871	2.35
219.25	2.37
219.629	3.44
220.008	4.31
220.387	3.69
220.766	5.64
221.144	5.32
221.523	6.31
221.902	6.43
222.28	5.74
222.659	5.45
223.037	5.05
223.416	5.14
223.794	5.14
224.173	5.23
224.551	4.85
224.929	5.89
225.308	5.37
225.686	5.06
226.064	4.85
226.442	4.46
226.821	4.53
227.199	4.84
227.577	5.09
227.955	5.06
228.333	4.88
228.711	4.82
229.089	4.56
229.467	4.07
229.845	4.27
230.222	4.38
230.6	3.81
230.978	3.6
231.356	3.97
231.733	3.8
232.111	3.77
232.488	3.69
232.866	3.53
233.243	3.16
233.621	3.23
233.998	3.14
234.376	3.28
234.753	2.95
235.13	2.85
235.508	2.83
235.885	2.84
236.262	2.71
236.639	2.71
237.016	2.54
237.393	2.6
237.77	2.7
238.147	2.67
238.524	2.73
238.901	2.57
239.278	2.6
239.655	2.64
240.032	2.66
240.409	2.66
240.785	2.73
241.162	2.76
241.539	2.82
241.915	2.82
242.292	2.82
242.668	2.83
243.045	2.82
243.421	2.81
243.798	2.81
244.174	2.86
244.551	2.84
244.927	2.87
245.303	2.9
245.679	2.89
246.056	2.87
246.432	2.91
246.808	2.87
247.184	2.88
247.56	2.89
247.936	2.87
248.312	2.88
248.688	2.88
249.064	2.89
249.44	2.91
249.815	2.89
250.191	2.9
250.567	2.92
250.943	2.91
251.318	2.89
251.694	2.89
252.069	2.88
252.445	2.88
252.82	2.89
253.196	2.88
253.571	2.89
253.947	2.88
254.322	2.9
254.697	2.89
255.073	2.88
255.448	2.89
255.823	2.85
256.198	2.85
256.573	2.85
256.948	2.84
257.323	2.82
257.698	2.78
258.073	2.75
258.448	2.74
258.823	2.74
259.198	2.71
259.573	2.71
259.948	2.72
260.322	2.71
260.697	2.67
261.072	2.66
261.446	2.66
261.821	2.63
262.195	2.63
262.57	2.62
262.944	2.63
263.319	2.65
263.693	2.64
264.067	2.64
264.442	2.61
264.816	2.57
265.19	2.57
265.564	2.56
265.938	2.54
266.313	2.54
266.687	2.54
267.061	2.55
267.435	2.56
267.809	2.56
268.183	2.55
268.556	2.52
268.93	2.52
269.304	2.51
269.678	2.49
270.051	2.48
270.425	2.47
270.799	2.47
271.172	2.47
271.546	2.45
271.919	2.45
272.293	2.44
272.666	2.45
273.04	2.48
273.413	2.5
273.787	2.52
274.16	2.51
274.533	2.53
274.906	2.51
275.279	2.5
275.653	2.51
276.026	2.53
276.399	2.54
276.772	2.56
277.145	2.56
277.518	2.58
277.891	2.58
278.263	2.57
278.636	2.56
279.009	2.56
279.382	2.56
279.755	2.59
280.127	2.62
280.5	2.63
280.872	2.65
281.245	2.67
281.617	2.65
281.99	2.67
282.362	2.65
282.735	2.65
283.107	2.66
283.479	2.65
283.852	2.69
284.224	2.69
284.596	2.7
284.968	2.71
285.34	2.71
285.713	2.72
286.085	2.73
286.457	2.73
286.829	2.75
287.201	2.76
287.572	2.76
287.944	2.77
288.316	2.77
288.688	2.78
289.06	2.79
289.431	2.79
289.803	2.81
290.175	2.83
290.546	2.85
290.918	2.88
291.289	2.89
291.661	2.91
292.032	2.91
292.403	2.93
292.775	2.95
293.146	2.96
293.517	2.98
293.889	3
294.26	3.02
294.631	3.06
295.002	3.08
295.373	3.09
295.744	3.12
296.115	3.12
296.486	3.16
296.857	3.19
297.228	3.2
297.599	3.24
297.97	3.26
298.34	3.28
298.711	3.31
299.082	3.32
299.452	3.36
299.823	3.38
300.194	3.41
300.564	3.43
300.935	3.45
301.305	3.47
301.676	3.51
302.046	3.53
302.416	3.54
302.787	3.58
303.157	3.61
303.527	3.65
303.897	3.68
304.267	3.71
304.637	3.74
305.008	3.76
305.378	3.8
305.748	3.84
306.117	3.85
306.487	3.89
306.857	3.93
307.227	3.97
307.597	4.01
307.967	4.03
308.336	4.08
308.706	4.09
309.076	4.12
309.445	4.15
309.815	4.18
310.184	4.2
310.554	4.22
310.923	4.26
311.293	4.29
311.662	4.32
312.031	4.34
312.401	4.39
312.77	4.42
313.139	4.46
313.508	4.5
313.877	4.53
314.246	4.58
314.616	4.59
314.985	4.63
315.353	4.67
315.722	4.69
316.091	4.73
316.46	4.76
316.829	4.8
317.198	4.84
317.567	4.88
317.935	4.92
318.304	4.95
318.672	4.99
319.041	5.03
319.41	5.05
319.778	5.1
320.147	5.15
320.515	5.19
320.883	5.2
321.252	5.25
321.62	5.27
321.988	5.3
322.357	5.33
322.725	5.36
323.093	5.38
323.461	5.4
323.829	5.43
324.197	5.47
324.565	5.49
324.933	5.51
325.301	5.53
325.669	5.57
326.037	5.57
326.405	5.59
326.772	5.6
327.14	5.62
327.508	5.63
327.875	5.65
328.243	5.66
328.61	5.66
328.978	5.66
329.346	5.67
329.713	5.69
330.08	5.7
330.448	5.7
330.815	5.72
331.182	5.74
331.55	5.75
331.917	5.77
332.284	5.77
332.651	5.79
333.018	5.82
333.385	5.83
333.752	5.83
334.119	5.84
334.486	5.88
334.853	5.9
335.22	5.92
335.587	5.94
335.954	5.96
336.32	5.97
336.687	5.97
337.054	5.99
337.42	6.02
337.787	6.03
338.153	6.06
338.52	6.06
338.886	6.08
339.253	6.09
339.619	6.1
339.986	6.12
340.352	6.13
340.718	6.13
341.084	6.15
341.451	6.17
341.817	6.2
342.183	6.22
342.549	6.23
342.915	6.23
343.281	6.25
343.647	6.26
344.013	6.28
344.379	6.29
344.745	6.31
345.11	6.32
345.476	6.34
345.842	6.35
346.208	6.36
346.573	6.36
346.939	6.36
347.304	6.38
347.67	6.39
348.035	6.39
348.401	6.4
348.766	6.41
349.132	6.41
349.497	6.41
349.862	6.42
350.228	6.41
350.593	6.4
350.958	6.41
351.323	6.41
351.688	6.42
352.053	6.41
352.418	6.41
352.783	6.39
353.148	6.37
353.513	6.37
353.878	6.36
354.243	6.36
354.608	6.35
354.972	6.34
355.337	6.32
355.702	6.32
356.066	6.3
356.431	6.28
356.795	6.27
357.16	6.24
357.524	6.23
357.889	6.22
358.253	6.21
358.618	6.18
358.982	6.16
359.346	6.15
359.71	6.13
360.075	6.12
360.439	6.09
360.803	6.08
361.167	6.07
361.531	6.05
361.895	6.04
362.259	6.01
362.623	5.99
362.987	5.97
363.351	5.95
363.714	5.92
364.078	5.9
364.442	5.87
364.806	5.85
365.169	5.84
365.533	5.82
365.896	5.79
366.26	5.76
366.623	5.74
366.987	5.71
367.35	5.68
367.714	5.65
368.077	5.63
368.44	5.59
368.803	5.56
369.167	5.52
369.53	5.48
369.893	5.45
370.256	5.41
370.619	5.37
370.982	5.34
371.345	5.31
371.708	5.27
372.071	5.24
372.434	5.2
372.797	5.18
373.159	5.14
373.522	5.12
373.885	5.1
374.247	5.07
374.61	5.03
374.973	4.99
375.335	4.96
375.698	4.92
376.06	4.88
376.423	4.85
376.785	4.81
377.147	4.78
377.51	4.75
377.872	4.72
378.234	4.68
378.596	4.66
378.958	4.63
379.321	4.59
379.683	4.57
380.045	4.53
380.407	4.5
380.769	4.47
381.13	4.44
381.492	4.41
381.854	4.38
382.216	4.35
382.578	4.32
382.939	4.3
383.301	4.28
383.663	4.26
384.024	4.23
384.386	4.21
384.747	4.18
385.109	4.16
385.47	4.14
385.832	4.1
386.193	4.08
386.554	4.05
386.916	4.03
387.277	4
387.638	3.98
387.999	3.96
388.36	3.94
388.721	3.91
389.082	3.89
389.443	3.87
389.804	3.85
390.165	3.84
390.526	3.82
390.887	3.8
391.248	3.78
391.609	3.76
391.969	3.74
392.33	3.71
392.691	3.69
393.051	3.68
393.412	3.65
393.772	3.64
394.133	3.62
394.493	3.6
394.854	3.57
395.214	3.55
395.574	3.54
395.935	3.52
396.295	3.5
396.655	3.48
397.015	3.46
397.376	3.45
397.736	3.43
398.096	3.41
398.456	3.39
398.816	3.38
399.176	3.36
399.535	3.34
399.895	3.32
400.255	3.31
400.615	3.29
400.975	3.28
401.334	3.27
401.694	3.25
402.054	3.24
402.413	3.22
402.773	3.21
403.132	3.2
403.492	3.19
403.851	3.17
404.211	3.17
404.57	3.16
404.929	3.15
405.288	3.13
405.648	3.13
406.007	3.12
406.366	3.11
406.725	3.11
407.084	3.1
407.443	3.09
407.802	3.09
408.161	3.08
408.52	3.08
408.879	3.07
409.238	3.06
409.596	3.06
409.955	3.06
410.314	3.05
410.673	3.04
411.031	3.04
411.39	3.04
411.748	3.03
412.107	3.03
412.465	3.03
412.824	3.04
413.182	3.05
413.54	3.06
413.899	3.07
414.257	3.09
414.615	3.11
414.974	3.13
415.332	3.15
415.69	3.17
416.048	3.18
416.406	3.21
416.764	3.22
417.122	3.24
417.48	3.25
417.838	3.27
418.195	3.28
418.553	3.29
418.911	3.3
419.269	3.3
419.626	3.29
419.984	3.28
420.342	3.27
420.699	3.26
421.057	3.24
421.414	3.22
421.772	3.21
422.129	3.19
422.486	3.19
422.844	3.18
423.201	3.18
423.558	3.17
423.915	3.17
424.273	3.16
424.63	3.16
424.987	3.15
425.344	3.15
425.701	3.14
426.058	3.14
426.415	3.14
426.772	3.13
427.128	3.13
427.485	3.11
427.842	3.1
428.199	3.08
428.555	3.07
428.912	3.05
429.269	3.03
429.625	3.01
429.982	2.99
430.338	2.97
430.695	2.95
431.051	2.92
431.407	2.91
431.764	2.89
432.12	2.88
432.476	2.87
432.832	2.86
433.189	2.86
433.545	2.86
433.901	2.87
434.257	2.88
434.613	2.9
434.969	2.91
435.325	2.93
435.681	2.96
436.036	2.97
436.392	2.99
436.748	3
437.104	3.01
437.459	3.02
437.815	3.04
438.171	3.05
438.526	3.07
438.882	3.09
439.237	3.11
439.593	3.14
439.948	3.16
440.304	3.18
440.659	3.2
441.014	3.21
441.369	3.23
441.725	3.24
442.08	3.25
442.435	3.26
442.79	3.26
443.145	3.27
443.5	3.26
443.855	3.26
444.21	3.26
444.565	3.26
444.92	3.25
445.275	3.24
445.629	3.24
445.984	3.23
446.339	3.22
446.693	3.21
447.048	3.19
447.403	3.18
447.757	3.16
448.112	3.14
448.466	3.12
448.82	3.1
449.175	3.09
449.529	3.07
449.883	3.06
450.238	3.04
450.592	3.03
450.946	3.02
451.3	3.02
451.654	3.02
452.008	3.02
452.362	3.02
452.716	3.02
453.07	3.02
453.424	3.02
453.778	3.01
454.132	3
454.486	3
454.839	2.98
455.193	2.97
455.547	2.97
455.9	2.95
456.254	2.93
456.607	2.91
456.961	2.9
457.314	2.89
457.668	2.88
458.021	2.88
458.375	2.88
458.728	2.88
459.081	2.88
459.434	2.89
459.787	2.9
460.141	2.91
460.494	2.91
460.847	2.92
461.2	2.93
461.553	2.93
461.906	2.94
462.259	2.95
462.611	2.95
462.964	2.96
463.317	2.97
463.67	2.97
464.022	2.98
464.375	2.99
464.728	3
465.08	3
465.433	3.01
465.785	3.01
466.138	3.01
466.49	3
466.843	2.99
467.195	2.98
467.547	2.97
467.899	2.95
468.252	2.94
468.604	2.93
468.956	2.92
469.308	2.91
469.66	2.91
470.012	2.91
470.364	2.91
470.716	2.91
471.068	2.93
471.42	2.94
471.772	2.96
472.123	2.97
472.475	2.98
472.827	2.99
473.178	2.99
473.53	3
473.882	3.01
474.233	3.02
474.585	3.05
474.936	3.09
475.288	3.15
475.639	3.23
475.99	3.32
476.342	3.42
476.693	3.53
477.044	3.64
477.395	3.76
477.746	3.88
478.097	4
478.448	4.12
478.8	4.24
479.15	4.35
479.501	4.45
479.852	4.55
480.203	4.64
480.554	4.73
480.905	4.81
481.255	4.89
481.606	4.96
481.957	5.04
482.307	5.1
482.658	5.17
483.009	5.23
483.359	5.29
483.709	5.35
484.06	5.41
484.41	5.46
484.761	5.51
485.111	5.57
485.461	5.62
485.811	5.67
486.162	5.71
486.512	5.74
486.862	5.78
487.212	5.8
487.562	5.81
487.912	5.82
488.262	5.83
488.612	5.83
488.961	5.82
489.311	5.79
489.661	5.75
490.011	5.7
490.36	5.63
490.71	5.55
491.06	5.47
491.409	5.38
491.759	5.28
492.108	5.18
492.458	5.07
492.807	4.97
493.157	4.86
493.506	4.76
493.855	4.67
494.204	4.58
494.554	4.49
494.903	4.41
495.252	4.34
495.601	4.27
495.95	4.21
496.299	4.15
496.648	4.09
496.997	4.04
497.346	4
497.695	3.96
498.043	3.92
498.392	3.88
498.741	3.85
499.09	3.82
499.438	3.8
499.787	3.78
500.135	3.77
500.484	3.76
500.832	3.77
501.181	3.78
501.529	3.8
501.878	3.84
502.226	3.88
502.574	3.93
502.923	3.98
503.271	4.04
503.619	4.1
503.967	4.16
504.315	4.22
504.663	4.28
505.011	4.34
505.359	4.41
505.707	4.47
506.055	4.54
506.403	4.62
506.751	4.7
507.098	4.78
507.446	4.86
507.794	4.95
508.141	5.04
508.489	5.13
508.837	5.24
509.184	5.34
509.531	5.45
509.879	5.56
510.226	5.69
510.574	5.81
510.921	5.95
511.268	6.09
511.616	6.24
511.963	6.38
512.31	6.54
512.657	6.69
513.004	6.84
513.351	6.98
513.698	7.12
514.045	7.26
514.392	7.38
514.739	7.5
515.086	7.62
515.432	7.73
515.779	7.85
516.126	7.97
516.473	8.1
516.819	8.24
517.166	8.39
517.512	8.56
517.859	8.74
518.205	8.93
518.552	9.14
518.898	9.36
519.245	9.62
519.591	9.92
519.937	10.28
520.283	10.69
520.629	11.13
520.976	11.6
521.322	12.09
521.668	12.59
522.014	13.1
522.36	13.62
522.706	14.12
523.052	14.61
523.398	15.08
523.743	15.51
524.089	15.91
524.435	16.28
524.781	16.65
525.126	17.01
525.472	17.36
525.817	17.71
526.163	18.06
526.509	18.39
526.854	18.73
527.199	19.06
527.545	19.4
527.89	19.75
528.235	20.09
528.581	20.41
528.926	20.73
529.271	21.02
529.616	21.31
529.961	21.59
530.306	21.86
530.651	22.11
530.996	22.35
531.341	22.56
531.686	22.77
532.031	22.96
532.376	23.17
532.721	23.4
533.065	23.65
533.41	23.92
533.755	24.16
534.099	24.39
534.444	24.59
534.788	24.77
535.133	24.95
535.477	25.1
535.822	25.24
536.166	25.34
536.51	25.4
536.855	25.42
537.199	25.42
537.543	25.42
537.887	25.43
538.231	25.47
538.576	25.52
538.92	25.56
539.264	25.58
539.608	25.59
539.951	25.59
540.295	25.58
540.639	25.55
540.983	25.52
541.327	25.47
541.671	25.4
542.014	25.35
542.358	25.32
542.701	25.34
543.045	25.41
543.389	25.5
543.732	25.61
544.075	25.73
544.419	25.87
544.762	26.02
545.105	26.17
545.449	26.33
545.792	26.5
546.135	26.67
546.478	26.81
546.821	26.92
547.165	26.98
547.508	27
547.851	26.98
548.194	26.93
548.536	26.85
548.879	26.75
549.222	26.62
549.565	26.49
549.908	26.37
550.25	26.27
550.593	26.22
550.936	26.21
551.278	26.24
551.621	26.31
551.963	26.4
552.306	26.5
552.648	26.62
552.991	26.77
553.333	26.93
553.675	27.12
554.017	27.34
554.36	27.57
554.702	27.83
555.044	28.12
555.386	28.45
555.728	28.82
556.07	29.15
556.412	29.47
556.754	29.74
557.096	29.97
557.438	30.19
557.78	30.41
558.121	30.63
558.463	30.85
558.805	31.08
559.147	31.3
559.488	31.53
559.83	31.75
560.171	31.98
560.513	32.19
560.854	32.41
561.196	32.63
561.537	32.84
561.878	33.04
562.22	33.24
562.561	33.42
562.902	33.61
563.243	33.81
563.584	34.01
563.925	34.2
564.266	34.38
564.607	34.57
564.948	34.76
565.289	34.95
565.63	35.13
565.971	35.32
566.312	35.49
566.653	35.66
566.993	35.84
567.334	36.01
567.675	36.17
568.015	36.34
568.356	36.49
568.696	36.63
569.037	36.78
569.377	36.93
569.718	37.06
570.058	37.2
570.398	37.33
570.739	37.46
571.079	37.59
571.419	37.72
571.759	37.83
572.099	37.96
572.439	38.09
572.779	38.2
573.119	38.32
573.459	38.43
573.799	38.55
574.139	38.65
574.479	38.76
574.819	38.87
575.158	38.98
575.498	39.08
575.838	39.19
576.177	39.3
576.517	39.41
576.856	39.52
577.196	39.61
577.535	39.71
577.875	39.82
578.214	39.93
578.553	40.02
578.893	40.12
579.232	40.22
579.571	40.31
579.91	40.4
580.25	40.5
580.589	40.61
580.928	40.71
581.267	40.8
581.606	40.9
581.945	41
582.283	41.1
582.622	41.21
582.961	41.31
583.3	41.41
583.639	41.51
583.977	41.61
584.316	41.71
584.654	41.8
584.993	41.9
585.332	41.99
585.67	42.08
586.008	42.18
586.347	42.27
586.685	42.35
587.024	42.45
587.362	42.54
587.7	42.63
588.038	42.72
588.376	42.81
588.715	42.91
589.053	43
589.391	43.1
589.729	43.2
590.067	43.28
590.404	43.37
590.742	43.44
591.08	43.53
591.418	43.62
591.756	43.7
592.093	43.77
592.431	43.84
592.769	43.91
593.106	43.98
593.444	44.04
593.781	44.1
594.119	44.17
594.456	44.23
594.793	44.29
595.131	44.36
595.468	44.42
595.805	44.48
596.143	44.54
596.48	44.61
596.817	44.69
597.154	44.76
597.491	44.83
597.828	44.91
598.165	44.98
598.502	45.06
598.839	45.11
599.176	45.17
599.512	45.23
599.849	45.29
600.186	45.34
600.523	45.4
600.859	45.45
601.196	45.5
601.532	45.55
601.869	45.6
602.205	45.66
602.542	45.7
602.878	45.76
603.215	45.8
603.551	45.84
603.887	45.89
604.223	45.94
604.56	45.99
604.896	46.03
605.232	46.06
605.568	46.1
605.904	46.13
606.24	46.16
606.576	46.2
606.912	46.22
607.248	46.26
607.583	46.3
607.919	46.33
608.255	46.37
608.591	46.4
608.926	46.43
609.262	46.47
609.597	46.5
609.933	46.53
610.268	46.56
610.604	46.58
610.939	46.61
611.275	46.62
611.61	46.65
611.945	46.67
612.281	46.68
612.616	46.71
612.951	46.73
613.286	46.77
613.621	46.8
613.956	46.83
614.291	46.85
614.626	46.87
614.961	46.9
615.296	46.92
615.631	46.94
615.966	46.97
616.3	47
616.635	47.02
616.97	47.03
617.304	47.05
617.639	47.08
617.973	47.1
618.308	47.13
618.642	47.16
618.977	47.19
619.311	47.21
619.646	47.23
619.98	47.27
620.314	47.3
620.648	47.33
620.983	47.37
621.317	47.4
621.651	47.43
621.985	47.45
622.319	47.47
622.653	47.5
622.987	47.52
623.321	47.54
623.655	47.57
623.988	47.59
624.322	47.61
624.656	47.64
624.99	47.66
625.323	47.68
625.657	47.7
625.99	47.73
626.324	47.75
626.657	47.77
626.991	47.79
627.324	47.81
627.658	47.82
627.991	47.83
628.324	47.85
628.657	47.88
628.991	47.9
629.324	47.93
629.657	47.94
629.99	47.95
630.323	47.97
630.656	47.99
630.989	48.02
631.322	48.04
631.655	48.06
631.987	48.08
632.32	48.09
632.653	48.12
632.986	48.15
633.318	48.18
633.651	48.2
633.984	48.21
634.316	48.23
634.649	48.24
634.981	48.26
635.313	48.28
635.646	48.29
635.978	48.32
636.31	48.34
636.643	48.36
636.975	48.38
637.307	48.41
637.639	48.43
637.971	48.46
638.303	48.48
638.635	48.5
638.967	48.51
639.299	48.54
639.631	48.55
639.963	48.57
640.295	48.59
640.626	48.61
640.958	48.62
641.29	48.65
641.621	48.68
641.953	48.69
642.285	48.7
642.616	48.71
642.948	48.72
643.279	48.75
643.61	48.77
643.942	48.8
644.273	48.83
644.604	48.84
644.936	48.87
645.267	48.89
645.598	48.89
645.929	48.92
646.26	48.92
646.591	48.93
646.922	48.96
647.253	48.97
647.584	48.99
647.915	49
648.245	49.02
648.576	49.04
648.907	49.06
649.238	49.07
649.568	49.07
649.899	49.08
650.229	49.1
650.56	49.11
650.89	49.12
651.221	49.13
651.551	49.13
651.882	49.15
652.212	49.16
652.542	49.19
652.872	49.2
653.203	49.2
653.533	49.22
653.863	49.23
654.193	49.25
654.523	49.27
654.853	49.28
655.183	49.32
655.513	49.35
655.843	49.36
656.172	49.39
656.502	49.4
656.832	49.41
657.162	49.42
657.491	49.43
657.821	49.45
658.15	49.47
658.48	49.48
658.809	49.48
659.139	49.5
659.468	49.51
659.798	49.53
660.127	49.55
660.456	49.55
660.785	49.56
661.115	49.58
661.444	49.6
661.773	49.61
662.102	49.61
662.431	49.63
662.76	49.64
663.089	49.68
663.418	49.7
663.747	49.72
664.076	49.75
664.404	49.77
664.733	49.79
665.062	49.81
665.39	49.82
665.719	49.85
666.048	49.86
666.376	49.87
666.705	49.91
667.033	49.93
667.362	49.94
667.69	49.94
668.018	49.96
668.347	49.98
668.675	49.98
669.003	49.99
669.331	50
669.659	50.01
669.987	50.02
670.315	50.05
670.643	50.06
670.971	50.06
671.299	50.07
671.627	50.08
671.955	50.09
672.283	50.12
672.61	50.14
672.938	50.16
673.266	50.15
673.593	50.17
673.921	50.17
674.249	50.19
674.576	50.2
674.904	50.21
675.231	50.22
675.558	50.23
675.886	50.23
676.213	50.25
676.54	50.26
676.867	50.27
677.195	50.27
677.522	50.26
677.849	50.25
678.176	50.26
678.503	50.26
678.83	50.27
679.157	50.27
679.484	50.28
679.81	50.29
680.137	50.31
680.464	50.32
680.791	50.34
681.117	50.36
681.444	50.36
681.771	50.36
682.097	50.36
682.424	50.35
682.75	50.36
683.077	50.37
683.403	50.38
683.729	50.38
684.056	50.4
684.382	50.41
684.708	50.42
685.034	50.42
685.36	50.42
685.686	50.41
686.012	50.4
686.339	50.41
686.664	50.43
686.99	50.42
687.316	50.45
687.642	50.45
687.968	50.47
688.294	50.48
688.619	50.49
688.945	50.49
689.271	50.51
689.596	50.52
689.922	50.52
690.247	50.53
690.573	50.53
690.898	50.55
691.224	50.56
691.549	50.57
691.874	50.59
692.2	50.59
692.525	50.6
692.85	50.6
693.175	50.6
693.5	50.6
693.825	50.6
694.15	50.6
694.475	50.61
694.8	50.63
695.125	50.63
695.45	50.64
695.775	50.67
696.099	50.68
696.424	50.69
696.749	50.71
697.073	50.72
697.398	50.72
697.723	50.73
698.047	50.75
698.372	50.76
698.696	50.79
699.02	50.83
699.345	50.85
699.669	50.86
699.993	50.88
700.318	50.91
700.642	50.9
700.966	50.91
701.29	50.93
701.614	50.95
701.938	50.96
702.262	50.98
702.586	50.97
702.91	50.98
703.234	50.99
703.557	50.98
703.881	51
704.205	51.01
704.529	51.03
704.852	51.04
705.176	51.05
705.499	51.08
705.823	51.1
706.146	51.14
706.47	51.17
706.793	51.19
707.117	51.23
707.44	51.25
707.763	51.26
708.086	51.28
708.409	51.31
708.733	51.31
709.056	51.33
709.379	51.35
709.702	51.37
710.025	51.35
710.348	51.36
710.671	51.36
710.993	51.34
711.316	51.35
711.639	51.35
711.962	51.36
712.284	51.36
712.607	51.34
712.93	51.33
713.252	51.31
713.575	51.31
713.897	51.31
714.22	51.31
714.542	51.31
714.864	51.3
715.187	51.33
715.509	51.35
715.831	51.37
716.153	51.37
716.475	51.38
716.798	51.41
717.12	51.44
717.442	51.46
717.764	51.47
718.085	51.49
718.407	51.49
718.729	51.49
719.051	51.51
719.373	51.47
719.695	51.47
720.016	51.46
720.338	51.43
720.659	51.43
720.981	51.45
721.302	51.47
721.624	51.46
721.945	51.49
722.267	51.47
722.588	51.47
722.909	51.47
723.231	51.53
723.552	51.53
723.873	51.57
724.194	51.61
724.515	51.61
724.836	51.61
725.157	51.58
725.478	51.58
725.799	51.61
726.12	51.65
726.441	51.69
726.762	51.69
727.083	51.68
727.403	51.69
727.724	51.69
728.045	51.7
728.365	51.69
728.686	51.68
729.006	51.67
729.327	51.7
729.647	51.7
729.967	51.7
730.288	51.69
730.608	51.68
730.928	51.66
731.249	51.69
731.569	51.69
731.889	51.68
732.209	51.68
732.529	51.7
732.849	51.7
733.169	51.69
733.489	51.73
733.809	51.73
734.129	51.75
734.448	51.75
734.768	51.76
735.088	51.78
735.408	51.8
735.727	51.79
736.047	51.83
736.366	51.81
736.686	51.83
737.005	51.81
737.325	51.79
737.644	51.79
737.963	51.79
738.283	51.81
738.602	51.81
738.921	51.79
739.24	51.78
739.56	51.76
739.879	51.76
740.198	51.79
740.517	51.82
740.836	51.82
741.155	51.85
741.473	51.87
741.792	51.88
742.111	51.9
742.43	51.89
742.748	51.88
743.067	51.93
743.386	51.93
743.704	51.93
744.023	51.96
744.341	51.93
744.66	51.97
744.978	51.99
745.297	52.01
745.615	52.04
745.933	52.08
746.252	52.11
746.57	52.13
746.888	52.14
747.206	52.13
747.524	52.13
747.842	52.15
748.16	52.12
748.478	52.12
748.796	52.12
749.114	52.09
749.432	52.09
749.749	52.09
750.067	52.11
750.385	52.18
750.703	52.18
751.02	52.21
751.338	52.21
751.655	52.24
751.973	52.25
752.29	52.25
752.608	52.28
752.925	52.27
753.242	52.29
753.56	52.29
753.877	52.27
754.194	52.24
754.511	52.21
754.828	52.2
755.145	52.22
755.462	52.23
755.779	52.26
756.096	52.23
756.413	52.23
756.73	52.25
757.047	52.23
757.364	52.25
757.68	52.23
757.997	52.23
758.314	52.23
758.63	52.21
758.947	52.18
759.264	52.22
759.58	52.21
759.896	52.21
760.213	52.23
760.529	52.23
760.846	52.26
761.162	52.28
761.478	52.29
761.794	52.28
762.11	52.29
762.426	52.31
762.743	52.29
763.059	52.29
763.375	52.25
763.69	52.28
764.006	52.3
764.322	52.3
764.638	52.29
764.954	52.31
765.27	52.34
765.585	52.35
765.901	52.38
766.216	52.39
766.532	52.38
766.848	52.4
767.163	52.42
767.478	52.43
767.794	52.41
768.109	52.4
768.424	52.39
768.74	52.39
769.055	52.39
769.37	52.39
769.685	52.39
770	52.42
770.315	52.4
770.63	52.4
770.945	52.37
771.26	52.34
771.575	52.35
771.89	52.4
772.205	52.39
772.52	52.37
772.834	52.37
773.149	52.36
773.464	52.35
773.778	52.32
774.093	52.3
774.407	52.3
774.722	52.33
775.036	52.33
775.351	52.33
775.665	52.4
775.979	52.41
776.293	52.41
776.608	52.4
776.922	52.39
777.236	52.39
777.55	52.42
777.864	52.4
778.178	52.34
778.492	52.27
778.806	52.29
779.12	52.25
779.434	52.28
779.747	52.29
780.061	52.31
780.375	52.35
780.689	52.4
781.002	52.38
781.316	52.39
781.629	52.4
781.943	52.42
782.256	52.4
782.57	52.43
782.883	52.46
783.196	52.51
783.51	52.57
783.823	52.58
784.136	52.59
784.449	52.62
784.762	52.58
785.075	52.54
785.388	52.59
785.701	52.58
786.014	52.6
786.327	52.61
786.64	52.58
786.953	52.57
787.266	52.61
787.578	52.66
787.891	52.66
788.204	52.61
788.516	52.6
788.829	52.58
789.141	52.62
789.454	52.63
789.766	52.67
790.079	52.67
790.391	52.6
790.703	52.6
791.016	52.64
791.328	52.68
791.64	52.65
791.952	52.64
792.264	52.57
792.576	52.58
792.888	52.55
793.2	52.51
793.512	52.48
793.824	52.51
794.136	52.46
794.448	52.5
794.76	52.5
795.071	52.54
795.383	52.51
795.695	52.47
796.006	52.42
796.318	52.35
796.629	52.34
796.941	52.37
797.252	52.36
797.564	52.41
797.875	52.43
798.186	52.42
798.497	52.41
798.809	52.38
799.12	52.38
799.431	52.4
799.742	52.41
800.053	52.36
800.364	52.36
800.675	52.35
800.986	52.42
801.297	52.39
801.608	52.4
801.918	52.37
802.229	52.31
802.54	52.29
802.851	52.31
803.161	52.37
803.472	52.4
803.782	52.4
804.093	52.44
804.403	52.48
804.714	52.56
805.024	52.6
805.334	52.59
805.645	52.66
805.955	52.69
806.265	52.71
806.575	52.7
806.885	52.72
807.195	52.65
807.505	52.66
807.815	52.7
808.125	52.73
808.435	52.74
808.745	52.75
809.055	52.76
809.365	52.79
809.674	52.76
809.984	52.75
810.294	52.7
810.603	52.66
810.913	52.65
811.222	52.72
811.532	52.74
811.841	52.73
812.151	52.75
812.46	52.74
812.769	52.74
813.079	52.74
813.388	52.77
813.697	52.73
814.006	52.72
814.315	52.7
814.624	52.76
814.933	52.78
815.242	52.83
815.551	52.81
815.86	52.75
816.169	52.74
816.478	52.79
816.786	52.8
817.095	52.7
817.404	52.68
817.712	52.71
818.021	52.75
818.33	52.78
818.638	52.83
818.947	52.86
819.255	52.88
819.563	52.89
819.872	52.92
820.18	52.93
820.488	52.91
820.796	52.89
821.105	52.91
821.413	52.9
821.721	52.94
822.029	52.96
822.337	52.97
822.645	52.96
822.953	52.95
823.26	52.95
823.568	52.96
823.876	52.95
824.184	52.95
824.491	52.95
824.799	52.93
825.107	52.95
825.414	52.96
825.722	52.95
826.029	52.94
826.337	52.94
826.644	52.96
826.951	52.97
827.259	52.95
827.566	52.95
827.873	52.93
828.18	52.92
828.488	52.92
828.795	52.93
829.102	52.9
829.409	52.9
829.716	52.93
830.023	52.92
830.329	52.9
830.636	52.88
830.943	52.86
831.25	52.8
831.557	52.79
831.863	52.78
832.17	52.77
832.476	52.73
832.783	52.71
833.089	52.67
833.396	52.65
833.702	52.62
834.009	52.64
834.315	52.61
834.621	52.57
834.928	52.56
835.234	52.57
835.54	52.54
835.846	52.54
836.152	52.51
836.458	52.51
836.764	52.54
837.07	52.54
837.376	52.62
837.682	52.58
837.988	52.52
838.293	52.51
838.599	52.51
838.905	52.49
839.211	52.45
839.516	52.4
839.822	52.38
840.127	52.39
840.433	52.4
840.738	52.44
841.044	52.48
841.349	52.44
841.654	52.47
841.959	52.42
842.265	52.44
842.57	52.48
842.875	52.5
843.18	52.55
843.485	52.58
843.79	52.68
844.095	52.61
844.4	52.68
844.705	52.74
845.01	52.73
845.315	52.74
845.619	52.8
845.924	52.8
846.229	52.86
846.533	52.84
846.838	52.86
847.142	52.9
847.447	53.05
847.751	53.13
848.056	53.33
848.36	53.36
848.664	53.47
848.969	53.51
849.273	53.38
849.577	53.4
849.881	53.3
850.185	53.37
850.489	53.55
850.794	53.64
851.097	53.73
851.401	53.72
851.705	53.69
852.009	53.81
852.313	53.89
852.617	54
852.92	54.08
853.224	54.11
853.528	54.04
853.831	54.07
854.135	54.02
854.438	54.11
854.742	54
855.045	53.87
855.349	53.99
855.652	53.99
855.955	53.87
856.259	53.7
856.562	53.73
856.865	53.58
857.168	53.56
857.471	53.61
857.774	53.63
858.077	53.7
858.38	53.89
858.683	53.89
858.986	54
859.289	53.97
859.592	54.05
859.894	53.88
860.197	53.85
860.5	53.73
860.802	53.76
861.105	53.71
861.407	53.65
861.71	53.77
862.012	53.88
862.315	53.86
862.617	53.94
862.919	53.81
863.222	53.69
863.524	53.64
863.826	53.8
864.128	53.75
864.43	53.81
864.732	53.86
865.034	53.74
865.336	53.72
865.638	53.58
865.94	53.53
866.242	53.55
866.544	53.64
866.846	53.54
867.147	53.56
867.449	53.65
867.751	53.57
868.052	53.55
868.354	53.39
868.655	53.38
868.957	53.34
869.258	53.4
869.56	53.44
869.861	53.5
870.162	53.56
870.463	53.59
870.765	53.54
871.066	53.51
871.367	53.36
871.668	53.35
871.969	53.28
872.27	53.24
872.571	53.3
872.872	53.33
873.173	53.36
873.473	53.33
873.774	53.33
874.075	53.25
874.376	53.14
874.676	53.17
874.977	53.14
875.277	53.19
875.578	53.27
875.878	53.34
876.179	53.2
876.479	53.35
876.78	53.31
877.08	53.36
877.38	53.37
877.68	53.25
877.981	53.36
878.281	53.54
878.581	53.55
