Data from UWBM41002_Reflection_00013.txt Node
Date: Sun May 02 14:15:17 EDT 2021
User: vgr7
Spectrometer: USB2G7710
Scans to average: 10
Trigger mode: 4
Integration Time (sec): 1.000000E-1
Electric dark correction enabled: true
Boxcar width: 20
XAxis mode: Wavelengths
Number of Pixels in Spectrum: 2048
>>>>>Begin Spectral Data<<<<<
177.721	103.13
178.105	97.94
178.488	98.29
178.871	84.43
179.254	76.17
179.636	55.18
180.019	46.96
180.402	45.89
180.785	38.43
181.168	40.03
181.55	37.29
181.933	40.49
182.316	35.21
182.698	30.99
183.081	22.53
183.463	17.43
183.846	8.95
184.228	9.75
184.611	9.25
184.993	9.78
185.376	12.61
185.758	13.9
186.14	18.63
186.522	16.33
186.904	15.65
187.287	13.31
187.669	12.02
188.051	11.97
188.433	15.53
188.815	11.69
189.197	12.83
189.579	10.51
189.961	11
190.342	9.74
190.724	11.02
191.106	9.82
191.488	8.49
191.869	5.87
192.251	4.96
192.633	4.27
193.014	2.75
193.396	-0.37
193.777	0.75
194.159	1.12
194.54	1.43
194.922	0.19
195.303	0.58
195.684	0.12
196.065	-1.36
196.447	-1.36
196.828	-1.81
197.209	-2.81
197.59	-6.47
197.971	-6.65
198.352	-5.68
198.733	-2.87
199.114	-2.34
199.495	0.18
199.876	-0.47
200.257	0.25
200.638	-0.18
201.018	-0.32
201.399	0.61
201.78	-0.25
202.16	0.04
202.541	-0.39
202.922	-0.11
203.302	2.14
203.683	3.11
204.063	1.68
204.444	2.37
204.824	2.21
205.204	2.04
205.585	3.93
205.965	4.84
206.345	3.79
206.725	4.17
207.106	4.84
207.486	5.47
207.866	7.49
208.246	7.98
208.626	8.59
209.006	9.79
209.386	9.11
209.766	8.39
210.145	7.29
210.525	7.42
210.905	7.78
211.285	6.98
211.664	7.57
212.044	7.29
212.424	5.56
212.803	5.75
213.183	6.92
213.562	8.77
213.942	9.4
214.321	8.48
214.701	8.43
215.08	9.59
215.459	10.47
215.838	8.82
216.218	7.93
216.597	7.86
216.976	8.37
217.355	8.44
217.734	9.6
218.113	9.96
218.492	9.44
218.871	8.92
219.25	8.85
219.629	9.01
220.008	9.74
220.387	8.92
220.766	9.88
221.144	8.89
221.523	8.92
221.902	8.82
222.28	8.87
222.659	9.03
223.037	8.85
223.416	7.53
223.794	7.95
224.173	7.76
224.551	7.46
224.929	7.91
225.308	7.77
225.686	7.7
226.064	7.71
226.442	7.25
226.821	7.43
227.199	8.22
227.577	8.48
227.955	9.21
228.333	9.33
228.711	8.73
229.089	7.73
229.467	7.12
229.845	7.26
230.222	7.49
230.6	7.15
230.978	6.67
231.356	6.95
231.733	6.9
232.111	6.57
232.488	6.16
232.866	5.58
233.243	4.95
233.621	4.95
233.998	4.99
234.376	4.89
234.753	4.54
235.13	4.39
235.508	4.39
235.885	4.3
236.262	4.21
236.639	4.26
237.016	4.12
237.393	4.07
237.77	4.02
238.147	3.89
238.524	3.87
238.901	3.9
239.278	3.87
239.655	3.91
240.032	3.89
240.409	3.88
240.785	3.99
241.162	4.02
241.539	4.02
241.915	4.1
242.292	4.15
242.668	4.1
243.045	4.06
243.421	3.98
243.798	3.95
244.174	3.98
244.551	4
244.927	4.03
245.303	4.02
245.679	4.02
246.056	3.98
246.432	4.01
246.808	4
247.184	4.02
247.56	4.05
247.936	4.05
248.312	4.09
248.688	4.11
249.064	4.07
249.44	4.07
249.815	4.06
250.191	4.06
250.567	4.07
250.943	4.04
251.318	4.02
251.694	4.02
252.069	4
252.445	4.05
252.82	4.05
253.196	4.02
253.571	4.02
253.947	4.01
254.322	3.99
254.697	3.98
255.073	3.95
255.448	3.95
255.823	3.94
256.198	3.9
256.573	3.87
256.948	3.87
257.323	3.82
257.698	3.79
258.073	3.75
258.448	3.74
258.823	3.75
259.198	3.74
259.573	3.72
259.948	3.72
260.322	3.71
260.697	3.69
261.072	3.67
261.446	3.67
261.821	3.66
262.195	3.66
262.57	3.65
262.944	3.63
263.319	3.64
263.693	3.64
264.067	3.63
264.442	3.62
264.816	3.61
265.19	3.6
265.564	3.61
265.938	3.6
266.313	3.61
266.687	3.62
267.061	3.62
267.435	3.62
267.809	3.59
268.183	3.59
268.556	3.59
268.93	3.59
269.304	3.59
269.678	3.6
270.051	3.59
270.425	3.56
270.799	3.55
271.172	3.54
271.546	3.55
271.919	3.55
272.293	3.55
272.666	3.56
273.04	3.56
273.413	3.59
273.787	3.6
274.16	3.6
274.533	3.62
274.906	3.63
275.279	3.62
275.653	3.64
276.026	3.65
276.399	3.66
276.772	3.67
277.145	3.66
277.518	3.67
277.891	3.68
278.263	3.67
278.636	3.67
279.009	3.69
279.382	3.69
279.755	3.72
280.127	3.74
280.5	3.75
280.872	3.76
281.245	3.78
281.617	3.78
281.99	3.79
282.362	3.79
282.735	3.79
283.107	3.81
283.479	3.82
283.852	3.85
284.224	3.86
284.596	3.88
284.968	3.89
285.34	3.91
285.713	3.95
286.085	3.99
286.457	4.02
286.829	4.02
287.201	4.03
287.572	4.04
287.944	4.05
288.316	4.05
288.688	4.07
289.06	4.1
289.431	4.12
289.803	4.16
290.175	4.19
290.546	4.24
290.918	4.27
291.289	4.3
291.661	4.32
292.032	4.35
292.403	4.39
292.775	4.42
293.146	4.47
293.517	4.51
293.889	4.55
294.26	4.59
294.631	4.65
295.002	4.69
295.373	4.73
295.744	4.77
296.115	4.82
296.486	4.87
296.857	4.92
297.228	4.96
297.599	5.02
297.97	5.06
298.34	5.1
298.711	5.16
299.082	5.2
299.452	5.25
299.823	5.3
300.194	5.35
300.564	5.4
300.935	5.45
301.305	5.5
301.676	5.55
302.046	5.61
302.416	5.69
302.787	5.76
303.157	5.81
303.527	5.9
303.897	5.97
304.267	6.05
304.637	6.1
305.008	6.16
305.378	6.24
305.748	6.31
306.117	6.4
306.487	6.48
306.857	6.57
307.227	6.64
307.597	6.72
307.967	6.79
308.336	6.85
308.706	6.92
309.076	6.97
309.445	7.03
309.815	7.08
310.184	7.14
310.554	7.19
310.923	7.27
311.293	7.32
311.662	7.37
312.031	7.44
312.401	7.5
312.77	7.55
313.139	7.61
313.508	7.68
313.877	7.74
314.246	7.81
314.616	7.88
314.985	7.94
315.353	8.02
315.722	8.06
316.091	8.13
316.46	8.2
316.829	8.26
317.198	8.34
317.567	8.41
317.935	8.49
318.304	8.57
318.672	8.64
319.041	8.72
319.41	8.79
319.778	8.89
320.147	8.94
320.515	9.02
320.883	9.05
321.252	9.1
321.62	9.16
321.988	9.23
322.357	9.29
322.725	9.35
323.093	9.41
323.461	9.48
323.829	9.54
324.197	9.61
324.565	9.66
324.933	9.7
325.301	9.76
325.669	9.82
326.037	9.85
326.405	9.91
326.772	9.96
327.14	10.01
327.508	10.05
327.875	10.1
328.243	10.16
328.61	10.18
328.978	10.22
329.346	10.25
329.713	10.29
330.08	10.32
330.448	10.34
330.815	10.38
331.182	10.39
331.55	10.43
331.917	10.46
332.284	10.48
332.651	10.52
333.018	10.56
333.385	10.6
333.752	10.64
334.119	10.68
334.486	10.72
334.853	10.75
335.22	10.81
335.587	10.84
335.954	10.88
336.32	10.92
336.687	10.96
337.054	10.98
337.42	11.01
337.787	11.04
338.153	11.08
338.52	11.08
338.886	11.1
339.253	11.13
339.619	11.17
339.986	11.19
340.352	11.24
340.718	11.26
341.084	11.29
341.451	11.31
341.817	11.33
342.183	11.35
342.549	11.37
342.915	11.4
343.281	11.41
343.647	11.44
344.013	11.47
344.379	11.48
344.745	11.51
345.11	11.53
345.476	11.56
345.842	11.59
346.208	11.61
346.573	11.62
346.939	11.64
347.304	11.66
347.67	11.67
348.035	11.67
348.401	11.69
348.766	11.69
349.132	11.7
349.497	11.72
349.862	11.73
350.228	11.72
350.593	11.71
350.958	11.71
351.323	11.71
351.688	11.71
352.053	11.71
352.418	11.71
352.783	11.7
353.148	11.68
353.513	11.67
353.878	11.67
354.243	11.66
354.608	11.65
354.972	11.64
355.337	11.62
355.702	11.6
356.066	11.57
356.431	11.55
356.795	11.52
357.16	11.49
357.524	11.48
357.889	11.45
358.253	11.43
358.618	11.4
358.982	11.37
359.346	11.34
359.71	11.32
360.075	11.29
360.439	11.25
360.803	11.23
361.167	11.21
361.531	11.18
361.895	11.14
362.259	11.1
362.623	11.07
362.987	11.03
363.351	10.99
363.714	10.95
364.078	10.91
364.442	10.87
364.806	10.83
365.169	10.78
365.533	10.74
365.896	10.7
366.26	10.65
366.623	10.59
366.987	10.54
367.35	10.48
367.714	10.42
368.077	10.36
368.44	10.31
368.803	10.24
369.167	10.17
369.53	10.09
369.893	10.01
370.256	9.93
370.619	9.85
370.982	9.78
371.345	9.71
371.708	9.63
372.071	9.56
372.434	9.49
372.797	9.41
373.159	9.34
373.522	9.28
373.885	9.21
374.247	9.12
374.61	9.03
374.973	8.96
375.335	8.89
375.698	8.81
376.06	8.73
376.423	8.65
376.785	8.58
377.147	8.51
377.51	8.44
377.872	8.36
378.234	8.29
378.596	8.21
378.958	8.13
379.321	8.05
379.683	7.99
380.045	7.92
380.407	7.86
380.769	7.79
381.13	7.72
381.492	7.65
381.854	7.59
382.216	7.53
382.578	7.46
382.939	7.4
383.301	7.34
383.663	7.28
384.024	7.22
384.386	7.16
384.747	7.1
385.109	7.05
385.47	6.99
385.832	6.93
386.193	6.87
386.554	6.81
386.916	6.76
387.277	6.7
387.638	6.65
387.999	6.61
388.36	6.55
388.721	6.51
389.082	6.47
389.443	6.43
389.804	6.38
390.165	6.33
390.526	6.29
390.887	6.24
391.248	6.2
391.609	6.16
391.969	6.12
392.33	6.08
392.691	6.04
393.051	5.99
393.412	5.95
393.772	5.91
394.133	5.86
394.493	5.82
394.854	5.77
395.214	5.72
395.574	5.68
395.935	5.64
396.295	5.6
396.655	5.55
397.015	5.51
397.376	5.47
397.736	5.43
398.096	5.39
398.456	5.35
398.816	5.31
399.176	5.27
399.535	5.23
399.895	5.19
400.255	5.16
400.615	5.12
400.975	5.09
401.334	5.05
401.694	5.02
402.054	4.99
402.413	4.95
402.773	4.92
403.132	4.89
403.492	4.86
403.851	4.83
404.211	4.8
404.57	4.78
404.929	4.76
405.288	4.73
405.648	4.71
406.007	4.69
406.366	4.67
406.725	4.64
407.084	4.63
407.443	4.61
407.802	4.59
408.161	4.57
408.52	4.56
408.879	4.54
409.238	4.53
409.596	4.52
409.955	4.51
410.314	4.49
410.673	4.47
411.031	4.46
411.39	4.45
411.748	4.44
412.107	4.43
412.465	4.42
412.824	4.43
413.182	4.43
413.54	4.44
413.899	4.45
414.257	4.47
414.615	4.49
414.974	4.51
415.332	4.53
415.69	4.56
416.048	4.57
416.406	4.6
416.764	4.61
417.122	4.63
417.48	4.65
417.838	4.66
418.195	4.67
418.553	4.68
418.911	4.68
419.269	4.68
419.626	4.66
419.984	4.64
420.342	4.62
420.699	4.59
421.057	4.56
421.414	4.54
421.772	4.51
422.129	4.49
422.486	4.48
422.844	4.46
423.201	4.45
423.558	4.44
423.915	4.43
424.273	4.42
424.63	4.41
424.987	4.4
425.344	4.39
425.701	4.37
426.058	4.37
426.415	4.36
426.772	4.35
427.128	4.33
427.485	4.31
427.842	4.29
428.199	4.27
428.555	4.24
428.912	4.21
429.269	4.18
429.625	4.15
429.982	4.11
430.338	4.08
430.695	4.05
431.051	4.01
431.407	3.99
431.764	3.97
432.12	3.94
432.476	3.93
432.832	3.92
433.189	3.91
433.545	3.91
433.901	3.92
434.257	3.94
434.613	3.96
434.969	3.98
435.325	4.01
435.681	4.04
436.036	4.06
436.392	4.08
436.748	4.1
437.104	4.11
437.459	4.12
437.815	4.14
438.171	4.16
438.526	4.18
438.882	4.21
439.237	4.24
439.593	4.28
439.948	4.3
440.304	4.34
440.659	4.36
441.014	4.38
441.369	4.4
441.725	4.41
442.08	4.43
442.435	4.44
442.79	4.45
443.145	4.45
443.5	4.45
443.855	4.44
444.21	4.44
444.565	4.44
444.92	4.42
445.275	4.41
445.629	4.4
445.984	4.38
446.339	4.37
446.693	4.35
447.048	4.33
447.403	4.31
447.757	4.28
448.112	4.26
448.466	4.24
448.82	4.21
449.175	4.18
449.529	4.16
449.883	4.14
450.238	4.11
450.592	4.1
450.946	4.08
451.3	4.07
451.654	4.07
452.008	4.07
452.362	4.07
452.716	4.06
453.07	4.06
453.424	4.05
453.778	4.03
454.132	4.02
454.486	4.01
454.839	3.99
455.193	3.97
455.547	3.95
455.9	3.92
456.254	3.91
456.607	3.88
456.961	3.85
457.314	3.83
457.668	3.82
458.021	3.82
458.375	3.81
458.728	3.81
459.081	3.81
459.434	3.82
459.787	3.83
460.141	3.84
460.494	3.85
460.847	3.86
461.2	3.87
461.553	3.88
461.906	3.89
462.259	3.9
462.611	3.9
462.964	3.91
463.317	3.92
463.67	3.93
464.022	3.95
464.375	3.96
464.728	3.97
465.08	3.98
465.433	3.99
465.785	3.99
466.138	3.99
466.49	3.98
466.843	3.97
467.195	3.96
467.547	3.95
467.899	3.94
468.252	3.92
468.604	3.91
468.956	3.91
469.308	3.9
469.66	3.91
470.012	3.91
470.364	3.92
470.716	3.93
471.068	3.95
471.42	3.97
471.772	4
472.123	4.01
472.475	4.03
472.827	4.04
473.178	4.06
473.53	4.07
473.882	4.09
474.233	4.11
474.585	4.14
474.936	4.21
475.288	4.3
475.639	4.4
475.99	4.53
476.342	4.67
476.693	4.82
477.044	4.98
477.395	5.14
477.746	5.3
478.097	5.47
478.448	5.63
478.8	5.79
479.15	5.93
479.501	6.07
479.852	6.19
480.203	6.31
480.554	6.42
480.905	6.53
481.255	6.63
481.606	6.72
481.957	6.81
482.307	6.9
482.658	6.98
483.009	7.05
483.359	7.13
483.709	7.2
484.06	7.27
484.41	7.34
484.761	7.41
485.111	7.47
485.461	7.54
485.811	7.6
486.162	7.65
486.512	7.7
486.862	7.73
487.212	7.75
487.562	7.77
487.912	7.79
488.262	7.79
488.612	7.79
488.961	7.77
489.311	7.74
489.661	7.67
490.011	7.59
490.36	7.5
490.71	7.39
491.06	7.27
491.409	7.14
491.759	7.01
492.108	6.87
492.458	6.73
492.807	6.59
493.157	6.45
493.506	6.32
493.855	6.19
494.204	6.08
494.554	5.96
494.903	5.87
495.252	5.78
495.601	5.69
495.95	5.61
496.299	5.54
496.648	5.47
496.997	5.41
497.346	5.36
497.695	5.32
498.043	5.27
498.392	5.24
498.741	5.2
499.09	5.17
499.438	5.15
499.787	5.14
500.135	5.13
500.484	5.13
500.832	5.14
501.181	5.17
501.529	5.21
501.878	5.27
502.226	5.34
502.574	5.41
502.923	5.49
503.271	5.58
503.619	5.67
503.967	5.76
504.315	5.85
504.663	5.95
505.011	6.04
505.359	6.14
505.707	6.24
506.055	6.35
506.403	6.45
506.751	6.57
507.098	6.69
507.446	6.8
507.794	6.92
508.141	7.06
508.489	7.19
508.837	7.33
509.184	7.48
509.531	7.63
509.879	7.78
510.226	7.95
510.574	8.12
510.921	8.31
511.268	8.49
511.616	8.68
511.963	8.87
512.31	9.07
512.657	9.26
513.004	9.46
513.351	9.64
513.698	9.82
514.045	9.98
514.392	10.14
514.739	10.29
515.086	10.43
515.432	10.57
515.779	10.71
516.126	10.85
516.473	11
516.819	11.17
517.166	11.35
517.512	11.55
517.859	11.76
518.205	11.98
518.552	12.22
518.898	12.49
519.245	12.79
519.591	13.15
519.937	13.58
520.283	14.07
520.629	14.62
520.976	15.18
521.322	15.77
521.668	16.38
522.014	17
522.36	17.62
522.706	18.22
523.052	18.82
523.398	19.37
523.743	19.89
524.089	20.36
524.435	20.8
524.781	21.23
525.126	21.65
525.472	22.07
525.817	22.49
526.163	22.89
526.509	23.29
526.854	23.69
527.199	24.08
527.545	24.48
527.89	24.89
528.235	25.3
528.581	25.7
528.926	26.07
529.271	26.43
529.616	26.77
529.961	27.11
530.306	27.43
530.651	27.73
530.996	28.01
531.341	28.27
531.686	28.51
532.031	28.75
532.376	29.01
532.721	29.3
533.065	29.61
533.41	29.94
533.755	30.25
534.099	30.52
534.444	30.78
534.788	31.01
535.133	31.23
535.477	31.43
535.822	31.6
536.166	31.75
536.51	31.83
536.855	31.87
537.199	31.87
537.543	31.88
537.887	31.92
538.231	31.99
538.576	32.06
538.92	32.12
539.264	32.17
539.608	32.19
539.951	32.2
540.295	32.21
540.639	32.2
540.983	32.17
541.327	32.12
541.671	32.05
542.014	32.03
542.358	32
542.701	32.04
543.045	32.15
543.389	32.29
543.732	32.45
544.075	32.61
544.419	32.81
544.762	33.01
545.105	33.23
545.449	33.46
545.792	33.69
546.135	33.93
546.478	34.12
546.821	34.27
547.165	34.37
547.508	34.41
547.851	34.41
548.194	34.37
548.536	34.28
548.879	34.17
549.222	34.03
549.565	33.88
549.908	33.74
550.25	33.62
550.593	33.56
550.936	33.57
551.278	33.62
551.621	33.71
551.963	33.82
552.306	33.95
552.648	34.12
552.991	34.31
553.333	34.52
553.675	34.78
554.017	35.06
554.36	35.36
554.702	35.69
555.044	36.06
555.386	36.47
555.728	36.92
556.07	37.3
556.412	37.71
556.754	38.04
557.096	38.31
557.438	38.58
557.78	38.85
558.121	39.13
558.463	39.39
558.805	39.66
559.147	39.92
559.488	40.18
559.83	40.44
560.171	40.69
560.513	40.94
560.854	41.19
561.196	41.43
561.537	41.67
561.878	41.9
562.22	42.12
562.561	42.34
562.902	42.54
563.243	42.76
563.584	42.98
563.925	43.18
564.266	43.4
564.607	43.6
564.948	43.8
565.289	44
565.63	44.2
565.971	44.4
566.312	44.59
566.653	44.77
566.993	44.94
567.334	45.12
567.675	45.27
568.015	45.43
568.356	45.6
568.696	45.75
569.037	45.9
569.377	46.05
569.718	46.19
570.058	46.33
570.398	46.47
570.739	46.59
571.079	46.7
571.419	46.82
571.759	46.92
572.099	47.03
572.439	47.14
572.779	47.24
573.119	47.34
573.459	47.43
573.799	47.53
574.139	47.62
574.479	47.72
574.819	47.81
575.158	47.9
575.498	47.98
575.838	48.07
576.177	48.16
576.517	48.26
576.856	48.34
577.196	48.42
577.535	48.5
577.875	48.58
578.214	48.66
578.553	48.74
578.893	48.81
579.232	48.89
579.571	48.95
579.91	49.01
580.25	49.09
580.589	49.15
580.928	49.21
581.267	49.29
581.606	49.35
581.945	49.42
582.283	49.47
582.622	49.54
582.961	49.6
583.3	49.68
583.639	49.74
583.977	49.8
584.316	49.86
584.654	49.92
584.993	50
585.332	50.07
585.67	50.13
586.008	50.2
586.347	50.26
586.685	50.34
587.024	50.42
587.362	50.49
587.7	50.56
588.038	50.63
588.376	50.7
588.715	50.78
589.053	50.86
589.391	50.95
589.729	51.02
590.067	51.09
590.404	51.15
590.742	51.22
591.08	51.29
591.418	51.36
591.756	51.42
592.093	51.48
592.431	51.52
592.769	51.56
593.106	51.62
593.444	51.67
593.781	51.71
594.119	51.75
594.456	51.8
594.793	51.86
595.131	51.9
595.468	51.95
595.805	52.01
596.143	52.06
596.48	52.11
596.817	52.17
597.154	52.23
597.491	52.29
597.828	52.36
598.165	52.41
598.502	52.47
598.839	52.52
599.176	52.57
599.512	52.62
599.849	52.67
600.186	52.71
600.523	52.73
600.859	52.77
601.196	52.8
601.532	52.83
601.869	52.87
602.205	52.91
602.542	52.94
602.878	52.97
603.215	52.99
603.551	53.02
603.887	53.05
604.223	53.07
604.56	53.1
604.896	53.13
605.232	53.15
605.568	53.16
605.904	53.17
606.24	53.19
606.576	53.23
606.912	53.24
607.248	53.27
607.583	53.29
607.919	53.32
608.255	53.34
608.591	53.36
608.926	53.38
609.262	53.4
609.597	53.41
609.933	53.43
610.268	53.46
610.604	53.46
610.939	53.46
611.275	53.47
611.61	53.49
611.945	53.49
612.281	53.49
612.616	53.5
612.951	53.5
613.286	53.51
613.621	53.52
613.956	53.54
614.291	53.56
614.626	53.56
614.961	53.59
615.296	53.6
615.631	53.61
615.966	53.62
616.3	53.63
616.635	53.64
616.97	53.66
617.304	53.66
617.639	53.67
617.973	53.69
618.308	53.72
618.642	53.74
618.977	53.77
619.311	53.8
619.646	53.83
619.98	53.86
620.314	53.88
620.648	53.92
620.983	53.93
621.317	53.95
621.651	53.98
621.985	54
622.319	54.02
622.653	54.05
622.987	54.07
623.321	54.1
623.655	54.13
623.988	54.14
624.322	54.16
624.656	54.17
624.99	54.18
625.323	54.19
625.657	54.21
625.99	54.24
626.324	54.26
626.657	54.29
626.991	54.31
627.324	54.33
627.658	54.34
627.991	54.36
628.324	54.38
628.657	54.39
628.991	54.41
629.324	54.43
629.657	54.45
629.99	54.47
630.323	54.48
630.656	54.5
630.989	54.52
631.322	54.53
631.655	54.54
631.987	54.56
632.32	54.56
632.653	54.57
632.986	54.6
633.318	54.6
633.651	54.62
633.984	54.62
634.316	54.62
634.649	54.63
634.981	54.65
635.313	54.65
635.646	54.67
635.978	54.69
636.31	54.7
636.643	54.73
636.975	54.74
637.307	54.75
637.639	54.76
637.971	54.79
638.303	54.82
638.635	54.83
638.967	54.84
639.299	54.86
639.631	54.87
639.963	54.89
640.295	54.9
640.626	54.92
640.958	54.94
641.29	54.95
641.621	54.95
641.953	54.96
642.285	54.98
642.616	55
642.948	55.01
643.279	55.02
643.61	55.03
643.942	55.04
644.273	55.05
644.604	55.06
644.936	55.08
645.267	55.09
645.598	55.1
645.929	55.11
646.26	55.11
646.591	55.11
646.922	55.15
647.253	55.16
647.584	55.17
647.915	55.19
648.245	55.21
648.576	55.23
648.907	55.24
649.238	55.24
649.568	55.26
649.899	55.27
650.229	55.27
650.56	55.29
650.89	55.29
651.221	55.31
651.551	55.33
651.882	55.33
652.212	55.34
652.542	55.36
652.872	55.38
653.203	55.39
653.533	55.38
653.863	55.41
654.193	55.4
654.523	55.41
654.853	55.42
655.183	55.45
655.513	55.46
655.843	55.47
656.172	55.49
656.502	55.5
656.832	55.52
657.162	55.54
657.491	55.57
657.821	55.57
658.15	55.59
658.48	55.61
658.809	55.63
659.139	55.64
659.468	55.66
659.798	55.68
660.127	55.7
660.456	55.71
660.785	55.71
661.115	55.73
661.444	55.74
661.773	55.76
662.102	55.76
662.431	55.77
662.76	55.8
663.089	55.8
663.418	55.81
663.747	55.82
664.076	55.83
664.404	55.84
664.733	55.85
665.062	55.85
665.39	55.86
665.719	55.87
666.048	55.89
666.376	55.9
666.705	55.92
667.033	55.94
667.362	55.95
667.69	55.97
668.018	55.97
668.347	55.98
668.675	56
669.003	56
669.331	56.01
669.659	56.01
669.987	56.03
670.315	56.04
670.643	56.05
670.971	56.05
671.299	56.06
671.627	56.08
671.955	56.09
672.283	56.1
672.61	56.1
672.938	56.11
673.266	56.13
673.593	56.13
673.921	56.12
674.249	56.15
674.576	56.15
674.904	56.16
675.231	56.19
675.558	56.2
675.886	56.23
676.213	56.22
676.54	56.24
676.867	56.24
677.195	56.27
677.522	56.28
677.849	56.28
678.176	56.28
678.503	56.29
678.83	56.3
679.157	56.31
679.484	56.32
679.81	56.33
680.137	56.34
680.464	56.35
680.791	56.35
681.117	56.36
681.444	56.37
681.771	56.38
682.097	56.39
682.424	56.4
682.75	56.42
683.077	56.42
683.403	56.41
683.729	56.42
684.056	56.43
684.382	56.43
684.708	56.44
685.034	56.45
685.36	56.47
685.686	56.48
686.012	56.5
686.339	56.5
686.664	56.51
686.99	56.53
687.316	56.55
687.642	56.55
687.968	56.58
688.294	56.59
688.619	56.58
688.945	56.61
689.271	56.62
689.596	56.62
689.922	56.62
690.247	56.64
690.573	56.62
690.898	56.64
691.224	56.63
691.549	56.67
691.874	56.67
692.2	56.7
692.525	56.71
692.85	56.73
693.175	56.74
693.5	56.74
693.825	56.76
694.15	56.77
694.475	56.78
694.8	56.77
695.125	56.79
695.45	56.81
695.775	56.81
696.099	56.81
696.424	56.82
696.749	56.83
697.073	56.84
697.398	56.85
697.723	56.86
698.047	56.87
698.372	56.88
698.696	56.89
699.02	56.9
699.345	56.91
699.669	56.92
699.993	56.92
700.318	56.94
700.642	56.95
700.966	56.95
701.29	56.96
701.614	56.98
701.938	56.98
702.262	56.99
702.586	57
702.91	57.02
703.234	57.04
703.557	57.05
703.881	57.09
704.205	57.09
704.529	57.12
704.852	57.12
705.176	57.15
705.499	57.15
705.823	57.14
706.146	57.15
706.47	57.17
706.793	57.2
707.117	57.21
707.44	57.24
707.763	57.26
708.086	57.27
708.409	57.28
708.733	57.29
709.056	57.3
709.379	57.3
709.702	57.32
710.025	57.34
710.348	57.33
710.671	57.34
710.993	57.38
711.316	57.38
711.639	57.38
711.962	57.37
712.284	57.38
712.607	57.36
712.93	57.38
713.252	57.4
713.575	57.41
713.897	57.41
714.22	57.42
714.542	57.42
714.864	57.43
715.187	57.46
715.509	57.45
715.831	57.44
716.153	57.44
716.475	57.43
716.798	57.42
717.12	57.41
717.442	57.42
717.764	57.4
718.085	57.42
718.407	57.41
718.729	57.43
719.051	57.47
719.373	57.5
719.695	57.48
720.016	57.49
720.338	57.48
720.659	57.49
720.981	57.52
721.302	57.54
721.624	57.58
721.945	57.59
722.267	57.6
722.588	57.64
722.909	57.66
723.231	57.67
723.552	57.67
723.873	57.68
724.194	57.69
724.515	57.73
724.836	57.74
725.157	57.74
725.478	57.73
725.799	57.76
726.12	57.76
726.441	57.77
726.762	57.75
727.083	57.76
727.403	57.75
727.724	57.74
728.045	57.74
728.365	57.74
728.686	57.72
729.006	57.75
729.327	57.76
729.647	57.76
729.967	57.78
730.288	57.79
730.608	57.81
730.928	57.88
731.249	57.86
731.569	57.86
731.889	57.88
732.209	57.84
732.529	57.83
732.849	57.85
733.169	57.84
733.489	57.87
733.809	57.86
734.129	57.87
734.448	57.91
734.768	57.89
735.088	57.87
735.408	57.87
735.727	57.84
736.047	57.84
736.366	57.83
736.686	57.84
737.005	57.84
737.325	57.82
737.644	57.79
737.963	57.79
738.283	57.78
738.602	57.8
738.921	57.81
739.24	57.79
739.56	57.78
739.879	57.81
740.198	57.81
740.517	57.87
740.836	57.86
741.155	57.87
741.473	57.83
741.792	57.87
742.111	57.86
742.43	57.86
742.748	57.89
743.067	57.91
743.386	57.93
743.704	57.94
744.023	57.9
744.341	57.91
744.66	57.9
744.978	57.88
745.297	57.9
745.615	57.91
745.933	57.93
746.252	57.93
746.57	57.93
746.888	57.93
747.206	57.88
747.524	57.86
747.842	57.86
748.16	57.83
748.478	57.83
748.796	57.85
749.114	57.85
749.432	57.88
749.749	57.92
750.067	57.91
750.385	57.93
750.703	57.93
751.02	57.94
751.338	57.95
751.655	57.98
751.973	57.96
752.29	57.95
752.608	57.97
752.925	57.96
753.242	57.99
753.56	57.94
753.877	57.99
754.194	58
754.511	58.06
754.828	58.02
755.145	58.06
755.462	58.06
755.779	58.05
756.096	58.04
756.413	58.03
756.73	58
757.047	58.04
757.364	58.08
757.68	58.09
757.997	58.13
758.314	58.15
758.63	58.19
758.947	58.19
759.264	58.21
759.58	58.21
759.896	58.24
760.213	58.26
760.529	58.25
760.846	58.28
761.162	58.33
761.478	58.37
761.794	58.39
762.11	58.37
762.426	58.36
762.743	58.36
763.059	58.38
763.375	58.39
763.69	58.39
764.006	58.38
764.322	58.38
764.638	58.36
764.954	58.36
765.27	58.38
765.585	58.38
765.901	58.41
766.216	58.39
766.532	58.42
766.848	58.39
767.163	58.35
767.478	58.31
767.794	58.34
768.109	58.32
768.424	58.33
768.74	58.32
769.055	58.3
769.37	58.29
769.685	58.29
770	58.27
770.315	58.25
770.63	58.23
770.945	58.21
771.26	58.19
771.575	58.15
771.89	58.16
772.205	58.15
772.52	58.14
772.834	58.12
773.149	58.11
773.464	58.11
773.778	58.1
774.093	58.07
774.407	58.04
774.722	58.01
775.036	58.03
775.351	58.06
775.665	58.05
775.979	58.04
776.293	57.99
776.608	58
776.922	58.04
777.236	58.06
777.55	58.08
777.864	58.13
778.178	58.15
778.492	58.14
778.806	58.08
779.12	58.08
779.434	58.06
779.747	58.09
780.061	58.18
780.375	58.21
780.689	58.19
781.002	58.18
781.316	58.16
781.629	58.14
781.943	58.17
782.256	58.21
782.57	58.19
782.883	58.22
783.196	58.19
783.51	58.22
783.823	58.2
784.136	58.23
784.449	58.2
784.762	58.18
785.075	58.2
785.388	58.16
785.701	58.15
786.014	58.19
786.327	58.21
786.64	58.16
786.953	58.13
787.266	58.15
787.578	58.18
787.891	58.2
788.204	58.18
788.516	58.19
788.829	58.19
789.141	58.23
789.454	58.2
789.766	58.18
790.079	58.22
790.391	58.2
790.703	58.22
791.016	58.22
791.328	58.26
791.64	58.28
791.952	58.29
792.264	58.23
792.576	58.19
792.888	58.16
793.2	58.18
793.512	58.2
793.824	58.18
794.136	58.19
794.448	58.23
794.76	58.26
795.071	58.21
795.383	58.24
795.695	58.22
796.006	58.23
796.318	58.23
796.629	58.29
796.941	58.33
797.252	58.36
797.564	58.4
797.875	58.38
798.186	58.42
798.497	58.44
798.809	58.38
799.12	58.34
799.431	58.37
799.742	58.37
800.053	58.34
800.364	58.31
800.675	58.28
800.986	58.28
801.297	58.26
801.608	58.22
801.918	58.2
802.229	58.22
802.54	58.24
802.851	58.23
803.161	58.22
803.472	58.19
803.782	58.2
804.093	58.16
804.403	58.24
804.714	58.2
805.024	58.25
805.334	58.24
805.645	58.23
805.955	58.26
806.265	58.21
806.575	58.17
806.885	58.2
807.195	58.15
807.505	58.14
807.815	58.24
808.125	58.24
808.435	58.26
808.745	58.31
809.055	58.32
809.365	58.29
809.674	58.27
809.984	58.3
810.294	58.31
810.603	58.3
810.913	58.29
811.222	58.29
811.532	58.32
811.841	58.33
812.151	58.37
812.46	58.42
812.769	58.43
813.079	58.48
813.388	58.54
813.697	58.53
814.006	58.56
814.315	58.54
814.624	58.58
814.933	58.64
815.242	58.64
815.551	58.61
815.86	58.65
816.169	58.7
816.478	58.75
816.786	58.78
817.095	58.76
817.404	58.76
817.712	58.83
818.021	58.88
818.33	58.85
818.638	58.83
818.947	58.83
819.255	58.9
819.563	58.87
819.872	58.94
820.18	59.02
820.488	59.04
820.796	59.05
821.105	59.09
821.413	59.1
821.721	59.13
822.029	59.14
822.337	59.12
822.645	59.11
822.953	59.11
823.26	59.11
823.568	59.12
823.876	59.13
824.184	59.15
824.491	59.14
824.799	59.13
825.107	59.13
825.414	59.16
825.722	59.16
826.029	59.17
826.337	59.2
826.644	59.2
826.951	59.21
827.259	59.19
827.566	59.19
827.873	59.17
828.18	59.16
828.488	59.16
828.795	59.14
829.102	59.11
829.409	59.1
829.716	59.11
830.023	59.11
830.329	59.1
830.636	59.09
830.943	59.11
831.25	59.12
831.557	59.13
831.863	59.11
832.17	59.14
832.476	59.09
832.783	59.01
833.089	58.95
833.396	58.92
833.702	58.87
834.009	58.85
834.315	58.84
834.621	58.8
834.928	58.81
835.234	58.81
835.54	58.77
835.846	58.75
836.152	58.71
836.458	58.63
836.764	58.58
837.07	58.61
837.376	58.58
837.682	58.54
837.988	58.46
838.293	58.44
838.599	58.41
838.905	58.36
839.211	58.29
839.516	58.28
839.822	58.3
840.127	58.26
840.433	58.33
840.738	58.38
841.044	58.36
841.349	58.39
841.654	58.46
841.959	58.51
842.265	58.51
842.57	58.52
842.875	58.46
843.18	58.34
843.485	58.33
843.79	58.32
844.095	58.38
844.4	58.37
844.705	58.39
845.01	58.4
845.315	58.34
845.619	58.36
845.924	58.44
846.229	58.4
846.533	58.36
846.838	58.3
847.142	58.29
847.447	58.35
847.751	58.5
848.056	58.47
848.36	58.59
848.664	58.62
848.969	58.7
849.273	58.74
849.577	58.67
849.881	58.7
850.185	58.66
850.489	58.6
850.794	58.65
851.097	58.68
851.401	58.64
851.705	58.76
852.009	58.79
852.313	58.84
852.617	58.84
852.92	58.69
853.224	58.61
853.528	58.57
853.831	58.34
854.135	58.2
854.438	58.24
854.742	58.09
855.045	58.05
855.349	58.08
855.652	58.22
855.955	58.3
856.259	58.36
856.562	58.42
856.865	58.47
857.168	58.38
857.471	58.32
857.774	58.3
858.077	58.16
858.38	58.03
858.683	58.05
858.986	57.98
859.289	57.93
859.592	58.1
859.894	58.08
860.197	57.89
860.5	57.95
860.802	57.84
861.105	57.84
861.407	57.73
861.71	57.76
862.012	57.73
862.315	57.76
862.617	57.8
862.919	57.9
863.222	57.84
863.524	57.74
863.826	57.8
864.128	57.89
864.43	57.93
864.732	57.94
865.034	58.04
865.336	57.96
865.638	57.98
865.94	57.94
866.242	58.14
866.544	58.25
866.846	58.08
867.147	58.14
867.449	58.21
867.751	58.16
868.052	58.32
868.354	58.28
868.655	58.26
868.957	58.13
869.258	58.15
869.56	58.27
869.861	58.42
870.162	58.44
870.463	58.62
870.765	58.64
871.066	58.71
871.367	58.81
871.668	58.75
871.969	58.72
872.27	58.65
872.571	58.69
872.872	58.76
873.173	58.78
873.473	58.84
873.774	59.01
874.075	58.93
874.376	59.05
874.676	58.96
874.977	59.04
875.277	59.06
875.578	59.09
875.878	59.2
876.179	59.09
876.479	59.03
876.78	58.97
877.08	59.04
877.38	58.94
877.68	59.23
877.981	59.31
878.281	59.49
878.581	59.41
