Data from UWBM91361_Reflection_00002.txt Node
Date: Sun May 02 12:20:52 EDT 2021
User: vgr7
Spectrometer: USB2G7710
Scans to average: 10
Trigger mode: 4
Integration Time (sec): 1.000000E-1
Electric dark correction enabled: true
Boxcar width: 10
XAxis mode: Wavelengths
Number of Pixels in Spectrum: 2048
>>>>>Begin Spectral Data<<<<<
177.721	-150.68
178.105	452.94
178.488	119.77
178.871	73.91
179.254	-200
179.636	-118.18
180.019	-10.89
180.402	108.33
180.785	59.56
181.168	29.79
181.55	75.23
181.933	-31.4
182.316	-22.49
182.698	-59.13
183.081	-291.76
183.463	-246.96
183.846	-25.08
184.228	-58.69
184.611	-24.16
184.993	-15.78
185.376	2.53
185.758	1.03
186.14	-9.9
186.522	4.98
186.904	2.32
187.287	7
187.669	4.04
188.051	2.19
188.433	7.81
188.815	8.17
189.197	11.87
189.579	8.28
189.961	14.93
190.342	13.93
190.724	17.73
191.106	16.25
191.488	20.3
191.869	13.7
192.251	15.13
192.633	13.3
193.014	11.18
193.396	5.65
193.777	6.69
194.159	7.28
194.54	1.03
194.922	2.42
195.303	8.07
195.684	9.64
196.065	9.93
196.447	3.87
196.828	-0.52
197.209	-3.42
197.59	-5.35
197.971	-9.94
198.352	-8.48
198.733	-2.16
199.114	0.35
199.495	-4.42
199.876	-0.72
200.257	-0.07
200.638	1.8
201.018	0.59
201.399	4.25
201.78	4.31
202.16	4.44
202.541	4.76
202.922	3.77
203.302	2.82
203.683	5.39
204.063	4.83
204.444	2.5
204.824	9.87
205.204	11.48
205.585	13.5
205.965	13.32
206.345	11.48
206.725	1.9
207.106	1.01
207.486	3.28
207.866	3.62
208.246	3.53
208.626	4.98
209.006	7.09
209.386	5.83
209.766	3.91
210.145	3.37
210.525	2.26
210.905	3.87
211.285	2.77
211.664	-1.04
212.044	-0.06
212.424	4.64
212.803	2.55
213.183	5.32
213.562	4.93
213.942	4.77
214.321	1.51
214.701	2.39
215.08	3.85
215.459	4.83
215.838	3.74
216.218	2.66
216.597	2.29
216.976	-0.06
217.355	1.7
217.734	1
218.113	-0.92
218.492	-0.88
218.871	-1.01
219.25	0.57
219.629	1.3
220.008	0.73
220.387	-0.05
220.766	-5.07
221.144	-8.63
221.523	-7.48
221.902	-5.36
222.28	-4.06
222.659	-5.26
223.037	-5.42
223.416	-5.6
223.794	-5.21
224.173	-4.96
224.551	-5.03
224.929	-4.08
225.308	-4.06
225.686	-2.58
226.064	-1.06
226.442	0.61
226.821	0.65
227.199	0.33
227.577	1.23
227.955	1.04
228.333	1.22
228.711	1.76
229.089	1.78
229.467	2.12
229.845	2.92
230.222	5.12
230.6	6.22
230.978	6.48
231.356	6.55
231.733	6.8
232.111	7.25
232.488	7.09
232.866	6.63
233.243	6.59
233.621	7.17
233.998	6.83
234.376	6.94
234.753	7.4
235.13	7.27
235.508	7.7
235.885	7.89
236.262	7.57
236.639	8.27
237.016	8.69
237.393	8.22
237.77	7.66
238.147	7.26
238.524	7.24
238.901	7.29
239.278	7.07
239.655	6.91
240.032	6.68
240.409	6.88
240.785	6.91
241.162	6.79
241.539	6.39
241.915	6.44
242.292	6.43
242.668	6.31
243.045	6.35
243.421	6.16
243.798	6.19
244.174	6.23
244.551	6
244.927	5.81
245.303	5.84
245.679	5.92
246.056	5.81
246.432	5.85
246.808	5.79
247.184	5.75
247.56	5.67
247.936	5.69
248.312	5.6
248.688	5.57
249.064	5.58
249.44	5.65
249.815	5.65
250.191	5.62
250.567	5.59
250.943	5.55
251.318	5.56
251.694	5.47
252.069	5.41
252.445	5.53
252.82	5.54
253.196	5.54
253.571	5.48
253.947	5.57
254.322	5.48
254.697	5.58
255.073	5.55
255.448	5.6
255.823	5.54
256.198	5.46
256.573	5.42
256.948	5.43
257.323	5.44
257.698	5.37
258.073	5.38
258.448	5.41
258.823	5.44
259.198	5.37
259.573	5.39
259.948	5.41
260.322	5.34
260.697	5.31
261.072	5.3
261.446	5.25
261.821	5.27
262.195	5.19
262.57	5.15
262.944	5.12
263.319	5.13
263.693	5.16
264.067	5.19
264.442	5.2
264.816	5.18
265.19	5.12
265.564	5.16
265.938	5.09
266.313	5.04
266.687	4.95
267.061	5.02
267.435	4.97
267.809	4.94
268.183	4.93
268.556	5.02
268.93	5.04
269.304	5.06
269.678	4.95
270.051	4.97
270.425	4.94
270.799	5.02
271.172	5
271.546	5.03
271.919	5.02
272.293	4.99
272.666	4.99
273.04	5.02
273.413	4.97
273.787	4.93
274.16	4.92
274.533	4.94
274.906	4.91
275.279	4.92
275.653	4.91
276.026	4.87
276.399	4.8
276.772	4.79
277.145	4.82
277.518	4.92
277.891	4.92
278.263	4.95
278.636	4.94
279.009	4.94
279.382	4.86
279.755	4.85
280.127	4.9
280.5	4.87
280.872	4.85
281.245	4.88
281.617	4.91
281.99	4.95
282.362	4.92
282.735	4.92
283.107	4.95
283.479	5
283.852	5.01
284.224	5.04
284.596	5
284.968	4.99
285.34	4.95
285.713	5.02
286.085	5.03
286.457	5.04
286.829	5.02
287.201	5.04
287.572	5.06
287.944	5.05
288.316	5.08
288.688	5.13
289.06	5.11
289.431	5.12
289.803	5.12
290.175	5.17
290.546	5.2
290.918	5.22
291.289	5.23
291.661	5.25
292.032	5.25
292.403	5.29
292.775	5.32
293.146	5.31
293.517	5.3
293.889	5.34
294.26	5.33
294.631	5.37
295.002	5.41
295.373	5.47
295.744	5.51
296.115	5.54
296.486	5.52
296.857	5.54
297.228	5.58
297.599	5.58
297.97	5.57
298.34	5.59
298.711	5.59
299.082	5.55
299.452	5.57
299.823	5.62
300.194	5.66
300.564	5.62
300.935	5.65
301.305	5.64
301.676	5.6
302.046	5.61
302.416	5.64
302.787	5.65
303.157	5.6
303.527	5.59
303.897	5.58
304.267	5.64
304.637	5.68
305.008	5.72
305.378	5.76
305.748	5.77
306.117	5.77
306.487	5.76
306.857	5.81
307.227	5.82
307.597	5.83
307.967	5.83
308.336	5.88
308.706	5.91
309.076	5.91
309.445	5.89
309.815	5.91
310.184	5.87
310.554	5.87
310.923	5.86
311.293	5.88
311.662	5.9
312.031	5.84
312.401	5.85
312.77	5.83
313.139	5.84
313.508	5.84
313.877	5.84
314.246	5.83
314.616	5.84
314.985	5.83
315.353	5.81
315.722	5.81
316.091	5.77
316.46	5.78
316.829	5.83
317.198	5.87
317.567	5.85
317.935	5.88
318.304	5.89
318.672	5.93
319.041	5.89
319.41	5.9
319.778	5.98
320.147	5.98
320.515	5.96
320.883	5.96
321.252	5.98
321.62	6
321.988	6.04
322.357	6.05
322.725	6.07
323.093	6.06
323.461	6.04
323.829	6.08
324.197	6.04
324.565	6.04
324.933	6.06
325.301	6.12
325.669	6.13
326.037	6.14
326.405	6.11
326.772	6.15
327.14	6.12
327.508	6.08
327.875	6.07
328.243	6.1
328.61	6.11
328.978	6.11
329.346	6.1
329.713	6.07
330.08	6.07
330.448	6.06
330.815	6.09
331.182	6.06
331.55	6.02
331.917	6.05
332.284	6.01
332.651	6.01
333.018	5.97
333.385	5.96
333.752	5.94
334.119	5.98
334.486	5.99
334.853	6.01
335.22	6.02
335.587	6
335.954	6.02
336.32	5.99
336.687	5.98
337.054	5.98
337.42	5.99
337.787	5.97
338.153	6
338.52	5.99
338.886	6.02
339.253	6.01
339.619	6
339.986	6.02
340.352	6.03
340.718	6.05
341.084	6.04
341.451	6.04
341.817	6.01
342.183	6.03
342.549	6.04
342.915	6.04
343.281	6.06
343.647	6.04
344.013	6.05
344.379	6.07
344.745	6.04
345.11	6.04
345.476	6.06
345.842	6.06
346.208	6.04
346.573	6.05
346.939	6.07
347.304	6.07
347.67	6.06
348.035	6.06
348.401	6.04
348.766	6.04
349.132	6.04
349.497	6.01
349.862	5.95
350.228	5.94
350.593	5.94
350.958	5.93
351.323	5.93
351.688	5.95
352.053	5.94
352.418	5.99
352.783	5.99
353.148	6.01
353.513	5.98
353.878	6.01
354.243	6
354.608	5.99
354.972	5.99
355.337	5.97
355.702	5.93
356.066	5.92
356.431	5.91
356.795	5.91
357.16	5.94
357.524	5.94
357.889	5.94
358.253	5.95
358.618	5.95
358.982	5.95
359.346	5.94
359.71	5.91
360.075	5.88
360.439	5.89
360.803	5.87
361.167	5.86
361.531	5.86
361.895	5.85
362.259	5.86
362.623	5.85
362.987	5.87
363.351	5.88
363.714	5.9
364.078	5.9
364.442	5.9
364.806	5.89
365.169	5.91
365.533	5.9
365.896	5.88
366.26	5.89
366.623	5.87
366.987	5.85
367.35	5.85
367.714	5.87
368.077	5.86
368.44	5.85
368.803	5.85
369.167	5.85
369.53	5.88
369.893	5.89
370.256	5.89
370.619	5.88
370.982	5.87
371.345	5.87
371.708	5.88
372.071	5.89
372.434	5.91
372.797	5.88
373.159	5.91
373.522	5.91
373.885	5.93
374.247	5.94
374.61	5.95
374.973	5.95
375.335	5.93
375.698	5.94
376.06	5.95
376.423	5.96
376.785	5.96
377.147	5.93
377.51	5.94
377.872	5.95
378.234	5.95
378.596	5.97
378.958	5.98
379.321	5.98
379.683	5.97
380.045	5.94
380.407	5.95
380.769	5.93
381.13	5.95
381.492	5.94
381.854	5.94
382.216	5.96
382.578	5.97
382.939	5.97
383.301	5.96
383.663	5.97
384.024	5.97
384.386	5.97
384.747	5.98
385.109	5.99
385.47	5.97
385.832	5.97
386.193	5.97
386.554	5.95
386.916	5.96
387.277	5.96
387.638	5.98
387.999	5.98
388.36	5.99
388.721	5.99
389.082	5.97
389.443	5.98
389.804	5.97
390.165	5.97
390.526	5.97
390.887	5.97
391.248	5.98
391.609	5.99
391.969	5.98
392.33	5.98
392.691	5.98
393.051	5.99
393.412	5.99
393.772	5.99
394.133	6
394.493	6
394.854	6
395.214	6
395.574	6
395.935	6
396.295	5.99
396.655	6
397.015	6
397.376	6.01
397.736	6.02
398.096	6.01
398.456	6.01
398.816	6.01
399.176	6
399.535	6.01
399.895	6
400.255	6.01
400.615	6.01
400.975	6.01
401.334	6.01
401.694	6.01
402.054	6.02
402.413	6.02
402.773	6.02
403.132	6.02
403.492	6.01
403.851	6.02
404.211	6.03
404.57	6.03
404.929	6.03
405.288	6.03
405.648	6.04
406.007	6.04
406.366	6.04
406.725	6.04
407.084	6.04
407.443	6.05
407.802	6.03
408.161	6.03
408.52	6.03
408.879	6.03
409.238	6.03
409.596	6.02
409.955	6.01
410.314	6.01
410.673	6.01
411.031	6.02
411.39	6.02
411.748	6.03
412.107	6.03
412.465	6.03
412.824	6.03
413.182	6.03
413.54	6.02
413.899	6.02
414.257	6.03
414.615	6.04
414.974	6.04
415.332	6.05
415.69	6.05
416.048	6.07
416.406	6.08
416.764	6.09
417.122	6.1
417.48	6.11
417.838	6.12
418.195	6.14
418.553	6.14
418.911	6.15
419.269	6.15
419.626	6.16
419.984	6.18
420.342	6.18
420.699	6.2
421.057	6.22
421.414	6.22
421.772	6.23
422.129	6.24
422.486	6.25
422.844	6.25
423.201	6.26
423.558	6.26
423.915	6.26
424.273	6.26
424.63	6.26
424.987	6.26
425.344	6.26
425.701	6.25
426.058	6.25
426.415	6.24
426.772	6.23
427.128	6.23
427.485	6.22
427.842	6.21
428.199	6.19
428.555	6.18
428.912	6.18
429.269	6.17
429.625	6.16
429.982	6.15
430.338	6.14
430.695	6.14
431.051	6.14
431.407	6.14
431.764	6.14
432.12	6.13
432.476	6.13
432.832	6.13
433.189	6.13
433.545	6.13
433.901	6.13
434.257	6.14
434.613	6.13
434.969	6.14
435.325	6.14
435.681	6.15
436.036	6.15
436.392	6.16
436.748	6.17
437.104	6.17
437.459	6.18
437.815	6.19
438.171	6.19
438.526	6.2
438.882	6.2
439.237	6.21
439.593	6.22
439.948	6.22
440.304	6.22
440.659	6.23
441.014	6.23
441.369	6.23
441.725	6.25
442.08	6.25
442.435	6.25
442.79	6.26
443.145	6.26
443.5	6.27
443.855	6.27
444.21	6.26
444.565	6.27
444.92	6.27
445.275	6.26
445.629	6.27
445.984	6.27
446.339	6.27
446.693	6.27
447.048	6.27
447.403	6.27
447.757	6.27
448.112	6.27
448.466	6.27
448.82	6.27
449.175	6.26
449.529	6.25
449.883	6.25
450.238	6.24
450.592	6.22
450.946	6.22
451.3	6.22
451.654	6.22
452.008	6.21
452.362	6.2
452.716	6.21
453.07	6.2
453.424	6.19
453.778	6.19
454.132	6.18
454.486	6.18
454.839	6.18
455.193	6.17
455.547	6.18
455.9	6.18
456.254	6.19
456.607	6.21
456.961	6.22
457.314	6.22
457.668	6.23
458.021	6.24
458.375	6.24
458.728	6.25
459.081	6.25
459.434	6.24
459.787	6.25
460.141	6.25
460.494	6.24
460.847	6.24
461.2	6.24
461.553	6.25
461.906	6.25
462.259	6.25
462.611	6.25
462.964	6.25
463.317	6.24
463.67	6.23
464.022	6.22
464.375	6.22
464.728	6.21
465.08	6.21
465.433	6.2
465.785	6.2
466.138	6.2
466.49	6.19
466.843	6.19
467.195	6.19
467.547	6.19
467.899	6.2
468.252	6.2
468.604	6.2
468.956	6.2
469.308	6.21
469.66	6.2
470.012	6.2
470.364	6.2
470.716	6.21
471.068	6.22
471.42	6.22
471.772	6.22
472.123	6.23
472.475	6.24
472.827	6.23
473.178	6.24
473.53	6.23
473.882	6.24
474.233	6.24
474.585	6.24
474.936	6.25
475.288	6.24
475.639	6.25
475.99	6.24
476.342	6.25
476.693	6.26
477.044	6.26
477.395	6.26
477.746	6.27
478.097	6.29
478.448	6.33
478.8	6.45
479.15	6.62
479.501	6.82
479.852	7.05
480.203	7.3
480.554	7.55
480.905	7.82
481.255	8.08
481.606	8.34
481.957	8.6
482.307	8.84
482.658	9.06
483.009	9.24
483.359	9.41
483.709	9.56
484.06	9.69
484.41	9.82
484.761	9.94
485.111	10.06
485.461	10.17
485.811	10.27
486.162	10.31
486.512	10.31
486.862	10.25
487.212	10.17
487.562	10.05
487.912	9.92
488.262	9.76
488.612	9.59
488.961	9.4
489.311	9.2
489.661	8.99
490.011	8.79
490.36	8.58
490.71	8.36
491.06	8.12
491.409	7.9
491.759	7.72
492.108	7.57
492.458	7.43
492.807	7.31
493.157	7.19
493.506	7.07
493.855	6.96
494.204	6.85
494.554	6.74
494.903	6.65
495.252	6.56
495.601	6.47
495.95	6.4
496.299	6.34
496.648	6.27
496.997	6.22
497.346	6.19
497.695	6.19
498.043	6.22
498.392	6.28
498.741	6.35
499.09	6.39
499.438	6.4
499.787	6.4
500.135	6.4
500.484	6.41
500.832	6.41
501.181	6.42
501.529	6.42
501.878	6.43
502.226	6.42
502.574	6.43
502.923	6.43
503.271	6.43
503.619	6.42
503.967	6.42
504.315	6.43
504.663	6.43
505.011	6.43
505.359	6.44
505.707	6.44
506.055	6.46
506.403	6.46
506.751	6.48
507.098	6.49
507.446	6.5
507.794	6.51
508.141	6.51
508.489	6.52
508.837	6.52
509.184	6.53
509.531	6.54
509.879	6.55
510.226	6.55
510.574	6.57
510.921	6.57
511.268	6.58
511.616	6.59
511.963	6.6
512.31	6.6
512.657	6.62
513.004	6.62
513.351	6.63
513.698	6.65
514.045	6.65
514.392	6.66
514.739	6.66
515.086	6.67
515.432	6.69
515.779	6.7
516.126	6.71
516.473	6.72
516.819	6.73
517.166	6.74
517.512	6.75
517.859	6.75
518.205	6.75
518.552	6.75
518.898	6.76
519.245	6.76
519.591	6.76
519.937	6.76
520.283	6.77
520.629	6.77
520.976	6.76
521.322	6.77
521.668	6.77
522.014	6.77
522.36	6.77
522.706	6.78
523.052	6.81
523.398	6.87
523.743	6.98
524.089	7.1
524.435	7.24
524.781	7.39
525.126	7.54
525.472	7.7
525.817	7.86
526.163	8.01
526.509	8.14
526.854	8.25
527.199	8.33
527.545	8.39
527.89	8.43
528.235	8.47
528.581	8.5
528.926	8.53
529.271	8.55
529.616	8.58
529.961	8.6
530.306	8.6
530.651	8.58
530.996	8.51
531.341	8.43
531.686	8.33
532.031	8.2
532.376	8.04
532.721	7.87
533.065	7.69
533.41	7.54
533.755	7.39
534.099	7.27
534.444	7.18
534.788	7.11
535.133	7.06
535.477	7.02
535.822	6.97
536.166	6.94
536.51	6.92
536.855	6.89
537.199	6.87
537.543	6.87
537.887	6.87
538.231	6.88
538.576	6.89
538.92	6.92
539.264	6.95
539.608	7.01
539.951	7.05
540.295	7.1
540.639	7.11
540.983	7.12
541.327	7.1
541.671	7.1
542.014	7.1
542.358	7.1
542.701	7.1
543.045	7.11
543.389	7.11
543.732	7.1
544.075	7.09
544.419	7.09
544.762	7.07
545.105	7.05
545.449	7.02
545.792	6.99
546.135	6.95
546.478	6.92
546.821	6.89
547.165	6.87
547.508	6.86
547.851	6.87
548.194	6.89
548.536	6.92
548.879	6.93
549.222	6.92
549.565	6.91
549.908	6.9
550.25	6.89
550.593	6.88
550.936	6.88
551.278	6.86
551.621	6.86
551.963	6.86
552.306	6.85
552.648	6.85
552.991	6.84
553.333	6.84
553.675	6.84
554.017	6.83
554.36	6.84
554.702	6.84
555.044	6.84
555.386	6.82
555.728	6.82
556.07	6.82
556.412	6.81
556.754	6.81
557.096	6.81
557.438	6.82
557.78	6.81
558.121	6.81
558.463	6.81
558.805	6.81
559.147	6.82
559.488	6.82
559.83	6.83
560.171	6.84
560.513	6.84
560.854	6.84
561.196	6.84
561.537	6.85
561.878	6.85
562.22	6.85
562.561	6.86
562.902	6.88
563.243	6.89
563.584	6.89
563.925	6.89
564.266	6.89
564.607	6.89
564.948	6.9
565.289	6.92
565.63	6.92
565.971	6.91
566.312	6.92
566.653	6.92
566.993	6.92
567.334	6.93
567.675	6.93
568.015	6.94
568.356	6.95
568.696	6.95
569.037	6.96
569.377	6.96
569.718	6.96
570.058	6.97
570.398	6.97
570.739	6.97
571.079	6.98
571.419	6.99
571.759	7
572.099	7.01
572.439	7.01
572.779	7.02
573.119	7.03
573.459	7.03
573.799	7.04
574.139	7.04
574.479	7.04
574.819	7.04
575.158	7.04
575.498	7.04
575.838	7.05
576.177	7.03
576.517	7.04
576.856	7.04
577.196	7.04
577.535	7.03
577.875	7.03
578.214	7.02
578.553	7.01
578.893	6.99
579.232	6.99
579.571	6.97
579.91	6.96
580.25	6.96
580.589	6.95
580.928	6.93
581.267	6.93
581.606	6.92
581.945	6.92
582.283	6.92
582.622	6.92
582.961	6.92
583.3	6.93
583.639	6.92
583.977	6.93
584.316	6.94
584.654	6.94
584.993	6.96
585.332	6.97
585.67	6.97
586.008	6.98
586.347	7
586.685	7.01
587.024	7.02
587.362	7.03
587.7	7.04
588.038	7.05
588.376	7.06
588.715	7.06
589.053	7.06
589.391	7.06
589.729	7.06
590.067	7.06
590.404	7.07
590.742	7.07
591.08	7.08
591.418	7.09
591.756	7.1
592.093	7.1
592.431	7.1
592.769	7.1
593.106	7.1
593.444	7.09
593.781	7.09
594.119	7.11
594.456	7.11
594.793	7.12
595.131	7.13
595.468	7.14
595.805	7.14
596.143	7.16
596.48	7.18
596.817	7.18
597.154	7.19
597.491	7.18
597.828	7.18
598.165	7.18
598.502	7.17
598.839	7.17
599.176	7.16
599.512	7.16
599.849	7.17
600.186	7.17
600.523	7.18
600.859	7.18
601.196	7.18
601.532	7.19
601.869	7.2
602.205	7.21
602.542	7.21
602.878	7.22
603.215	7.22
603.551	7.21
603.887	7.22
604.223	7.22
604.56	7.22
604.896	7.23
605.232	7.24
605.568	7.24
605.904	7.26
606.24	7.28
606.576	7.28
606.912	7.3
607.248	7.31
607.583	7.31
607.919	7.32
608.255	7.31
608.591	7.31
608.926	7.31
609.262	7.3
609.597	7.29
609.933	7.29
610.268	7.3
610.604	7.3
610.939	7.3
611.275	7.3
611.61	7.31
611.945	7.31
612.281	7.32
612.616	7.31
612.951	7.28
613.286	7.28
613.621	7.27
613.956	7.27
614.291	7.26
614.626	7.25
614.961	7.26
615.296	7.27
615.631	7.26
615.966	7.24
616.3	7.25
616.635	7.27
616.97	7.26
617.304	7.26
617.639	7.26
617.973	7.26
618.308	7.25
618.642	7.24
618.977	7.24
619.311	7.24
619.646	7.24
619.98	7.26
620.314	7.27
620.648	7.28
620.983	7.28
621.317	7.28
621.651	7.27
621.985	7.27
622.319	7.27
622.653	7.28
622.987	7.3
623.321	7.31
623.655	7.31
623.988	7.32
624.322	7.33
624.656	7.33
624.99	7.34
625.323	7.35
625.657	7.36
625.99	7.36
626.324	7.39
626.657	7.4
626.991	7.41
627.324	7.4
627.658	7.4
627.991	7.4
628.324	7.41
628.657	7.42
628.991	7.43
629.324	7.44
629.657	7.45
629.99	7.44
630.323	7.46
630.656	7.46
630.989	7.46
631.322	7.47
631.655	7.47
631.987	7.46
632.32	7.46
632.653	7.47
632.986	7.47
633.318	7.45
633.651	7.45
633.984	7.44
634.316	7.46
634.649	7.45
634.981	7.47
635.313	7.47
635.646	7.49
635.978	7.48
636.31	7.47
636.643	7.47
636.975	7.48
637.307	7.48
637.639	7.48
637.971	7.5
638.303	7.5
638.635	7.48
638.967	7.49
639.299	7.47
639.631	7.49
639.963	7.5
640.295	7.51
640.626	7.53
640.958	7.54
641.29	7.53
641.621	7.55
641.953	7.56
642.285	7.56
642.616	7.56
642.948	7.57
643.279	7.59
643.61	7.6
643.942	7.59
644.273	7.6
644.604	7.59
644.936	7.58
645.267	7.58
645.598	7.61
645.929	7.63
646.26	7.65
646.591	7.67
646.922	7.68
647.253	7.68
647.584	7.67
647.915	7.69
648.245	7.71
648.576	7.72
648.907	7.73
649.238	7.74
649.568	7.72
649.899	7.71
650.229	7.71
650.56	7.73
650.89	7.76
651.221	7.78
651.551	7.82
651.882	7.83
652.212	7.83
652.542	7.82
652.872	7.83
653.203	7.83
653.533	7.82
653.863	7.81
654.193	7.8
654.523	7.79
654.853	7.78
655.183	7.77
655.513	7.77
655.843	7.79
656.172	7.78
656.502	7.82
656.832	7.84
657.162	7.85
657.491	7.85
657.821	7.84
658.15	7.82
658.48	7.83
658.809	7.83
659.139	7.83
659.468	7.86
659.798	7.87
660.127	7.88
660.456	7.9
660.785	7.92
661.115	7.96
661.444	7.97
661.773	7.99
662.102	8
662.431	8.01
662.76	7.98
663.089	7.97
663.418	7.97
663.747	7.96
664.076	7.96
664.404	7.93
664.733	7.94
665.062	7.97
665.39	7.94
665.719	7.95
666.048	7.97
666.376	7.96
666.705	7.93
667.033	7.92
667.362	7.91
667.69	7.89
668.018	7.89
668.347	7.91
668.675	7.88
669.003	7.88
669.331	7.86
669.659	7.87
669.987	7.91
670.315	7.9
670.643	7.91
670.971	7.91
671.299	7.92
671.627	7.93
671.955	7.91
672.283	7.9
672.61	7.91
672.938	7.89
673.266	7.88
673.593	7.88
673.921	7.89
674.249	7.9
674.576	7.93
674.904	7.92
675.231	7.93
675.558	7.97
675.886	8
676.213	8.04
676.54	8.07
676.867	8.06
677.195	8.09
677.522	8.13
677.849	8.14
678.176	8.16
678.503	8.17
678.83	8.18
679.157	8.22
679.484	8.24
679.81	8.26
680.137	8.28
680.464	8.31
680.791	8.3
681.117	8.31
681.444	8.3
681.771	8.32
682.097	8.29
682.424	8.3
682.75	8.26
683.077	8.26
683.403	8.26
683.729	8.27
684.056	8.3
684.382	8.26
684.708	8.28
685.034	8.31
685.36	8.32
685.686	8.35
686.012	8.36
686.339	8.37
686.664	8.35
686.99	8.33
687.316	8.34
687.642	8.36
687.968	8.37
688.294	8.38
688.619	8.37
688.945	8.41
689.271	8.4
689.596	8.42
689.922	8.44
690.247	8.45
690.573	8.47
690.898	8.48
691.224	8.53
691.549	8.52
691.874	8.47
692.2	8.48
692.525	8.47
692.85	8.46
693.175	8.46
693.5	8.5
693.825	8.52
694.15	8.52
694.475	8.53
694.8	8.53
695.125	8.55
695.45	8.57
695.775	8.58
696.099	8.57
696.424	8.6
696.749	8.61
697.073	8.63
697.398	8.61
697.723	8.59
698.047	8.59
698.372	8.62
698.696	8.66
699.02	8.65
699.345	8.65
699.669	8.66
699.993	8.64
700.318	8.61
700.642	8.64
700.966	8.65
701.29	8.66
701.614	8.67
701.938	8.68
702.262	8.68
702.586	8.69
702.91	8.69
703.234	8.69
703.557	8.66
703.881	8.64
704.205	8.67
704.529	8.67
704.852	8.66
705.176	8.64
705.499	8.62
705.823	8.63
706.146	8.65
706.47	8.63
706.793	8.68
707.117	8.72
707.44	8.68
707.763	8.68
708.086	8.69
708.409	8.67
708.733	8.66
709.056	8.65
709.379	8.65
709.702	8.68
710.025	8.7
710.348	8.72
710.671	8.74
710.993	8.76
711.316	8.74
711.639	8.75
711.962	8.77
712.284	8.8
712.607	8.82
712.93	8.81
713.252	8.83
713.575	8.82
713.897	8.85
714.22	8.86
714.542	8.87
714.864	8.88
715.187	8.94
715.509	8.98
715.831	9
716.153	9.06
716.475	9.08
716.798	9.08
717.12	9.07
717.442	9.08
717.764	9.08
718.085	9.13
718.407	9.16
718.729	9.14
719.051	9.15
719.373	9.15
719.695	9.15
720.016	9.15
720.338	9.2
720.659	9.19
720.981	9.27
721.302	9.31
721.624	9.36
721.945	9.33
722.267	9.3
722.588	9.29
722.909	9.27
723.231	9.26
723.552	9.23
723.873	9.29
724.194	9.31
724.515	9.35
724.836	9.37
725.157	9.33
725.478	9.33
725.799	9.34
726.12	9.36
726.441	9.41
726.762	9.46
727.083	9.45
727.403	9.48
727.724	9.38
728.045	9.38
728.365	9.35
728.686	9.41
729.006	9.43
729.327	9.45
729.647	9.46
729.967	9.46
730.288	9.48
730.608	9.48
730.928	9.52
731.249	9.51
731.569	9.52
731.889	9.54
732.209	9.55
732.529	9.54
732.849	9.55
733.169	9.52
733.489	9.48
733.809	9.52
734.129	9.49
734.448	9.51
734.768	9.49
735.088	9.52
735.408	9.5
735.727	9.5
736.047	9.52
736.366	9.5
736.686	9.54
737.005	9.55
737.325	9.53
737.644	9.51
737.963	9.47
738.283	9.49
738.602	9.51
738.921	9.51
739.24	9.53
739.56	9.51
739.879	9.52
740.198	9.59
740.517	9.59
740.836	9.58
741.155	9.62
741.473	9.7
741.792	9.69
742.111	9.68
742.43	9.7
742.748	9.63
743.067	9.67
743.386	9.65
743.704	9.64
744.023	9.67
744.341	9.64
744.66	9.64
744.978	9.63
745.297	9.62
745.615	9.63
745.933	9.57
746.252	9.58
746.57	9.6
746.888	9.59
747.206	9.57
747.524	9.58
747.842	9.63
748.16	9.57
748.478	9.5
748.796	9.48
749.114	9.41
749.432	9.48
749.749	9.49
750.067	9.46
750.385	9.53
750.703	9.5
751.02	9.48
751.338	9.56
751.655	9.55
751.973	9.51
752.29	9.49
752.608	9.51
752.925	9.52
753.242	9.53
753.56	9.54
753.877	9.51
754.194	9.51
754.511	9.52
754.828	9.53
755.145	9.61
755.462	9.61
755.779	9.68
756.096	9.7
756.413	9.71
756.73	9.77
757.047	9.74
757.364	9.84
757.68	9.9
757.997	9.89
758.314	9.96
758.63	10.07
758.947	10.23
759.264	10.25
759.58	10.32
759.896	10.31
760.213	10.37
760.529	10.37
760.846	10.35
761.162	10.35
761.478	10.37
761.794	10.34
762.11	10.35
762.426	10.38
762.743	10.37
763.059	10.42
763.375	10.43
763.69	10.45
764.006	10.4
764.322	10.42
764.638	10.39
764.954	10.4
765.27	10.42
765.585	10.4
765.901	10.46
766.216	10.43
766.532	10.38
766.848	10.35
767.163	10.44
767.478	10.47
767.794	10.45
768.109	10.44
768.424	10.49
768.74	10.53
769.055	10.47
769.37	10.5
769.685	10.48
770	10.45
770.315	10.46
770.63	10.5
770.945	10.44
771.26	10.46
771.575	10.44
771.89	10.35
772.205	10.34
772.52	10.26
772.834	10.27
773.149	10.38
773.464	10.4
773.778	10.36
774.093	10.44
774.407	10.52
774.722	10.58
775.036	10.6
775.351	10.58
775.665	10.65
775.979	10.63
776.293	10.64
776.608	10.68
776.922	10.69
777.236	10.68
777.55	10.78
777.864	10.83
778.178	10.79
778.492	10.8
778.806	10.71
779.12	10.77
779.434	10.75
779.747	10.71
780.061	10.72
780.375	10.73
780.689	10.68
781.002	10.71
781.316	10.75
781.629	10.71
781.943	10.74
782.256	10.79
782.57	10.86
782.883	10.8
783.196	10.84
783.51	10.91
783.823	10.88
784.136	10.8
784.449	10.84
784.762	10.92
785.075	10.87
785.388	10.83
785.701	10.82
786.014	10.89
786.327	10.93
786.64	10.9
786.953	10.88
787.266	10.99
787.578	10.92
787.891	10.86
788.204	10.97
788.516	11.1
788.829	11.09
789.141	11.04
789.454	11.1
789.766	11.06
790.079	10.98
790.391	11.02
790.703	11.19
791.016	11.14
791.328	11.18
791.64	11.29
791.952	11.37
792.264	11.44
792.576	11.51
792.888	11.48
793.2	11.48
793.512	11.5
793.824	11.43
794.136	11.42
794.448	11.49
794.76	11.47
795.071	11.45
795.383	11.45
795.695	11.59
796.006	11.6
796.318	11.67
796.629	11.83
796.941	11.93
797.252	11.83
797.564	11.77
797.875	11.66
798.186	11.62
798.497	11.72
798.809	11.66
799.12	11.69
799.431	11.71
799.742	11.8
800.053	11.79
800.364	11.86
800.675	11.95
800.986	11.91
801.297	11.95
801.608	11.91
801.918	11.97
802.229	12
802.54	12.09
802.851	12.05
803.161	11.96
803.472	11.89
803.782	11.92
804.093	11.98
804.403	12.11
804.714	12.25
805.024	12.19
805.334	12.26
805.645	12.14
805.955	12.25
806.265	12.11
806.575	12.21
806.885	12.14
807.195	12.03
807.505	12
807.815	11.85
808.125	11.82
808.435	11.83
808.745	11.84
809.055	11.81
809.365	11.95
809.674	12.04
809.984	12.16
810.294	12.22
810.603	12.35
810.913	12.36
811.222	12.25
811.532	12.46
811.841	12.4
812.151	12.47
812.46	12.57
812.769	12.82
813.079	12.87
813.388	12.95
813.697	13.1
814.006	13.22
814.315	13.4
814.624	13.53
814.933	13.64
815.242	13.56
815.551	13.53
815.86	13.35
816.169	13.28
816.478	13.27
816.786	13.13
817.095	13.19
817.404	13.25
817.712	13.25
818.021	13.15
818.33	13.14
818.638	13.3
818.947	13.2
819.255	13.18
819.563	13.2
819.872	13.22
820.18	13.28
820.488	13.21
820.796	13.23
821.105	13.18
821.413	13.13
821.721	13.12
822.029	13.16
822.337	13.17
822.645	13.16
822.953	13.16
823.26	13.18
823.568	13.11
823.876	13.07
824.184	13.06
824.491	13.06
824.799	13.09
825.107	13.07
825.414	13.09
825.722	13.09
826.029	13.07
826.337	13.09
826.644	13.07
826.951	13.11
827.259	13.11
827.566	13.12
827.873	13.16
828.18	13.1
828.488	13.1
828.795	13.16
829.102	13.15
829.409	13.16
829.716	13.18
830.023	13.28
830.329	13.31
830.636	13.36
830.943	13.4
831.25	13.46
831.557	13.39
831.863	13.35
832.17	13.33
832.476	13.35
832.783	13.3
833.089	13.27
833.396	13.22
833.702	13.2
834.009	13.22
834.315	13.18
834.621	13.31
834.928	13.31
835.234	13.25
835.54	13.27
835.846	13.25
836.152	13.25
836.458	13.26
836.764	13.22
837.07	13.26
837.376	13.22
837.682	13.16
837.988	13.29
838.293	13.43
838.599	13.49
838.905	13.48
839.211	13.55
839.516	13.63
839.822	13.81
840.127	13.76
840.433	13.82
840.738	13.89
841.044	13.81
841.349	13.91
841.654	14.04
841.959	14.14
842.265	14.25
842.57	14.37
842.875	14.45
843.18	14.69
843.485	14.9
843.79	14.96
844.095	15.17
844.4	15.07
844.705	14.95
845.01	14.9
845.315	14.94
845.619	14.99
845.924	14.99
846.229	14.65
846.533	14.85
846.838	15.09
847.142	14.99
847.447	15.18
847.751	15.09
848.056	15.23
848.36	15.32
848.664	15.28
848.969	15.08
849.273	15.28
849.577	15.37
849.881	15.1
850.185	15.42
850.489	15.22
850.794	15.62
851.097	15.68
851.401	15.93
851.705	16.04
852.009	15.95
852.313	15.85
852.617	16.19
852.92	16.03
853.224	15.99
853.528	16.39
853.831	16.67
854.135	16.31
854.438	16.03
854.742	16.02
855.045	16.01
855.349	16.17
855.652	16.05
855.955	15.9
856.259	16.01
856.562	16.32
856.865	16.34
857.168	15.88
857.471	15.76
857.774	15.66
858.077	15.81
858.38	15.62
858.683	15.71
858.986	15.61
859.289	16.1
859.592	15.96
859.894	15.77
860.197	15.68
860.5	15.59
860.802	15.96
861.105	15.91
861.407	16.31
861.71	16.4
862.012	16.46
862.315	16.57
862.617	16.38
862.919	15.95
863.222	15.9
863.524	16.37
863.826	16.84
864.128	16.69
864.43	16.53
864.732	16.96
865.034	16.84
865.336	17.01
865.638	16.66
865.94	16.81
866.242	16.46
866.544	16.27
866.846	17.05
867.147	16.96
867.449	17.06
867.751	17.03
868.052	16.84
868.354	16.73
868.655	17.33
868.957	17.87
869.258	17.81
869.56	17.62
869.861	17.49
870.162	17.08
870.463	17.47
870.765	17.37
871.066	17.39
871.367	17.67
871.668	17.53
871.969	17.94
872.27	17.77
872.571	18.17
872.872	18.33
873.173	17.87
873.473	17.64
873.774	18.09
874.075	18.07
874.376	18.37
874.676	18.37
874.977	18.08
875.277	18.1
875.578	18.09
875.878	18.44
876.179	18.36
876.479	18.52
876.78	18.34
877.08	18.71
877.38	18.58
877.68	18.59
877.981	18.84
878.281	18.52
878.581	18.77
