Data from UWBM86267_Reflection_00003.txt Node
Date: Sun May 02 14:07:19 EDT 2021
User: vgr7
Spectrometer: USB2G7710
Scans to average: 10
Trigger mode: 4
Integration Time (sec): 1.000000E-1
Electric dark correction enabled: true
Boxcar width: 20
XAxis mode: Wavelengths
Number of Pixels in Spectrum: 2048
>>>>>Begin Spectral Data<<<<<
177.721	-58.29
178.105	-165
178.488	-118.2
178.871	-89.55
179.254	-51.17
179.636	-77.06
180.019	-63.16
180.402	-75.36
180.785	-44.18
181.168	-26.02
181.55	-34.4
181.933	-22.14
182.316	-24.79
182.698	-22.65
183.081	-21.45
183.463	-23.19
183.846	-25.63
184.228	-15.25
184.611	-13.57
184.993	-11.19
185.376	-9.91
185.758	-3.81
186.14	-1.02
186.522	-1.71
186.904	0.47
187.287	0.44
187.669	-0.22
188.051	-0.37
188.433	-2.61
188.815	-6.24
189.197	-4.33
189.579	-3.67
189.961	-3.31
190.342	-5.62
190.724	-5.7
191.106	-6.07
191.488	-5.83
191.869	-10.02
192.251	-13.29
192.633	-11.18
193.014	-9.53
193.396	-12.21
193.777	-8.76
194.159	-8.02
194.54	-8.44
194.922	-8.99
195.303	-7.95
195.684	-6.17
196.065	-6.11
196.447	-6.52
196.828	-8.16
197.209	-8.28
197.59	-10.74
197.971	-12.31
198.352	-11.88
198.733	-11.02
199.114	-10.56
199.495	-9.71
199.876	-12.2
200.257	-11.83
200.638	-13.37
201.018	-13.06
201.399	-12.85
201.78	-13.85
202.16	-12.77
202.541	-13.1
202.922	-13.46
203.302	-12.3
203.683	-12.2
204.063	-10.64
204.444	-10.68
204.824	-11.89
205.204	-14.65
205.585	-14.71
205.965	-14.79
206.345	-14.4
206.725	-15.21
207.106	-15.74
207.486	-13.42
207.866	-11.87
208.246	-13.9
208.626	-14.68
209.006	-12.96
209.386	-13.74
209.766	-15.42
210.145	-16.15
210.525	-15.4
210.905	-13.89
211.285	-17.02
211.664	-15.65
212.044	-14.79
212.424	-16.51
212.803	-15.49
213.183	-15.96
213.562	-12.44
213.942	-11.73
214.321	-13.24
214.701	-14.61
215.08	-15.32
215.459	-14.92
215.838	-16.54
216.218	-16.51
216.597	-16.68
216.976	-16.65
217.355	-15.99
217.734	-16.19
218.113	-16.57
218.492	-16.78
218.871	-18.34
219.25	-17.31
219.629	-18.02
220.008	-17.37
220.387	-19.1
220.766	-15.15
221.144	-14.29
221.523	-12.04
221.902	-10.28
222.28	-9.84
222.659	-9.12
223.037	-9.02
223.416	-6.87
223.794	-5.54
224.173	-4.51
224.551	-4.85
224.929	-4.19
225.308	-3.91
225.686	-3.41
226.064	-3.29
226.442	-3.43
226.821	-2.85
227.199	-2.84
227.577	-2.76
227.955	-1.61
228.333	-1.33
228.711	-1.44
229.089	-2.15
229.467	-2.49
229.845	-2.55
230.222	-2.13
230.6	-1.54
230.978	-1.26
231.356	-1.01
231.733	-1.04
232.111	-0.85
232.488	-0.78
232.866	-0.9
233.243	-0.77
233.621	-0.52
233.998	-0.31
234.376	0.03
234.753	-0.11
235.13	0.19
235.508	0.61
235.885	0.91
236.262	0.98
236.639	1.05
237.016	1.08
237.393	1.17
237.77	1.27
238.147	1.36
238.524	1.47
238.901	1.41
239.278	1.52
239.655	1.61
240.032	1.69
240.409	1.74
240.785	1.9
241.162	1.95
241.539	1.97
241.915	2.04
242.292	2.1
242.668	2.16
243.045	2.13
243.421	2.11
243.798	2.14
244.174	2.22
244.551	2.25
244.927	2.27
245.303	2.32
245.679	2.34
246.056	2.28
246.432	2.3
246.808	2.33
247.184	2.36
247.56	2.39
247.936	2.38
248.312	2.38
248.688	2.4
249.064	2.4
249.44	2.4
249.815	2.4
250.191	2.41
250.567	2.41
250.943	2.37
251.318	2.32
251.694	2.33
252.069	2.32
252.445	2.32
252.82	2.3
253.196	2.31
253.571	2.31
253.947	2.31
254.322	2.31
254.697	2.32
255.073	2.3
255.448	2.32
255.823	2.3
256.198	2.27
256.573	2.24
256.948	2.25
257.323	2.25
257.698	2.22
258.073	2.18
258.448	2.19
258.823	2.19
259.198	2.17
259.573	2.16
259.948	2.16
260.322	2.16
260.697	2.16
261.072	2.15
261.446	2.15
261.821	2.14
262.195	2.12
262.57	2.11
262.944	2.09
263.319	2.12
263.693	2.14
264.067	2.14
264.442	2.13
264.816	2.12
265.19	2.11
265.564	2.12
265.938	2.12
266.313	2.13
266.687	2.15
267.061	2.15
267.435	2.14
267.809	2.13
268.183	2.15
268.556	2.14
268.93	2.13
269.304	2.11
269.678	2.12
270.051	2.09
270.425	2.07
270.799	2.04
271.172	2.08
271.546	2.07
271.919	2.09
272.293	2.08
272.666	2.07
273.04	2.08
273.413	2.12
273.787	2.12
274.16	2.12
274.533	2.13
274.906	2.14
275.279	2.14
275.653	2.15
276.026	2.15
276.399	2.15
276.772	2.18
277.145	2.18
277.518	2.21
277.891	2.23
278.263	2.22
278.636	2.22
279.009	2.2
279.382	2.19
279.755	2.19
280.127	2.2
280.5	2.21
280.872	2.23
281.245	2.22
281.617	2.22
281.99	2.21
282.362	2.2
282.735	2.2
283.107	2.22
283.479	2.2
283.852	2.22
284.224	2.24
284.596	2.23
284.968	2.23
285.34	2.24
285.713	2.25
286.085	2.26
286.457	2.24
286.829	2.24
287.201	2.24
287.572	2.23
287.944	2.23
288.316	2.24
288.688	2.23
289.06	2.23
289.431	2.24
289.803	2.24
290.175	2.24
290.546	2.25
290.918	2.25
291.289	2.25
291.661	2.25
292.032	2.24
292.403	2.24
292.775	2.23
293.146	2.22
293.517	2.24
293.889	2.24
294.26	2.26
294.631	2.27
295.002	2.29
295.373	2.29
295.744	2.29
296.115	2.29
296.486	2.31
296.857	2.33
297.228	2.35
297.599	2.37
297.97	2.38
298.34	2.37
298.711	2.38
299.082	2.37
299.452	2.37
299.823	2.39
300.194	2.4
300.564	2.41
300.935	2.41
301.305	2.42
301.676	2.44
302.046	2.44
302.416	2.44
302.787	2.46
303.157	2.46
303.527	2.47
303.897	2.47
304.267	2.48
304.637	2.48
305.008	2.49
305.378	2.49
305.748	2.49
306.117	2.48
306.487	2.51
306.857	2.51
307.227	2.51
307.597	2.52
307.967	2.52
308.336	2.53
308.706	2.52
309.076	2.51
309.445	2.51
309.815	2.51
310.184	2.5
310.554	2.49
310.923	2.52
311.293	2.5
311.662	2.47
312.031	2.46
312.401	2.47
312.77	2.47
313.139	2.48
313.508	2.47
313.877	2.48
314.246	2.5
314.616	2.49
314.985	2.49
315.353	2.5
315.722	2.48
316.091	2.49
316.46	2.48
316.829	2.49
317.198	2.5
317.567	2.5
317.935	2.48
318.304	2.49
318.672	2.48
319.041	2.49
319.41	2.47
319.778	2.48
320.147	2.46
320.515	2.46
320.883	2.45
321.252	2.44
321.62	2.44
321.988	2.44
322.357	2.44
322.725	2.44
323.093	2.43
323.461	2.43
323.829	2.45
324.197	2.45
324.565	2.44
324.933	2.44
325.301	2.44
325.669	2.46
326.037	2.44
326.405	2.46
326.772	2.46
327.14	2.45
327.508	2.43
327.875	2.43
328.243	2.43
328.61	2.43
328.978	2.42
329.346	2.41
329.713	2.42
330.08	2.41
330.448	2.39
330.815	2.39
331.182	2.38
331.55	2.4
331.917	2.39
332.284	2.38
332.651	2.37
333.018	2.38
333.385	2.38
333.752	2.38
334.119	2.37
334.486	2.37
334.853	2.37
335.22	2.37
335.587	2.37
335.954	2.38
336.32	2.38
336.687	2.38
337.054	2.38
337.42	2.39
337.787	2.38
338.153	2.39
338.52	2.39
338.886	2.38
339.253	2.38
339.619	2.39
339.986	2.38
340.352	2.39
340.718	2.39
341.084	2.39
341.451	2.38
341.817	2.4
342.183	2.41
342.549	2.42
342.915	2.42
343.281	2.42
343.647	2.42
344.013	2.41
344.379	2.41
344.745	2.41
345.11	2.42
345.476	2.43
345.842	2.44
346.208	2.44
346.573	2.43
346.939	2.43
347.304	2.43
347.67	2.43
348.035	2.43
348.401	2.44
348.766	2.43
349.132	2.44
349.497	2.45
349.862	2.46
350.228	2.46
350.593	2.47
350.958	2.47
351.323	2.48
351.688	2.48
352.053	2.48
352.418	2.48
352.783	2.49
353.148	2.48
353.513	2.48
353.878	2.49
354.243	2.5
354.608	2.5
354.972	2.51
355.337	2.5
355.702	2.51
356.066	2.51
356.431	2.51
356.795	2.5
357.16	2.49
357.524	2.49
357.889	2.49
358.253	2.48
358.618	2.48
358.982	2.48
359.346	2.49
359.71	2.5
360.075	2.5
360.439	2.5
360.803	2.5
361.167	2.5
361.531	2.5
361.895	2.5
362.259	2.5
362.623	2.5
362.987	2.49
363.351	2.49
363.714	2.5
364.078	2.5
364.442	2.49
364.806	2.49
365.169	2.49
365.533	2.49
365.896	2.48
366.26	2.49
366.623	2.49
366.987	2.49
367.35	2.48
367.714	2.48
368.077	2.49
368.44	2.5
368.803	2.5
369.167	2.49
369.53	2.49
369.893	2.49
370.256	2.49
370.619	2.49
370.982	2.5
371.345	2.49
371.708	2.49
372.071	2.5
372.434	2.51
372.797	2.51
373.159	2.52
373.522	2.52
373.885	2.53
374.247	2.53
374.61	2.52
374.973	2.52
375.335	2.52
375.698	2.52
376.06	2.52
376.423	2.52
376.785	2.52
377.147	2.52
377.51	2.53
377.872	2.53
378.234	2.53
378.596	2.53
378.958	2.53
379.321	2.54
379.683	2.54
380.045	2.54
380.407	2.55
380.769	2.55
381.13	2.54
381.492	2.54
381.854	2.54
382.216	2.54
382.578	2.54
382.939	2.54
383.301	2.54
383.663	2.54
384.024	2.54
384.386	2.54
384.747	2.55
385.109	2.55
385.47	2.55
385.832	2.55
386.193	2.55
386.554	2.55
386.916	2.55
387.277	2.55
387.638	2.55
387.999	2.55
388.36	2.55
388.721	2.55
389.082	2.55
389.443	2.55
389.804	2.55
390.165	2.55
390.526	2.55
390.887	2.55
391.248	2.55
391.609	2.56
391.969	2.56
392.33	2.56
392.691	2.56
393.051	2.56
393.412	2.57
393.772	2.57
394.133	2.57
394.493	2.57
394.854	2.57
395.214	2.57
395.574	2.57
395.935	2.57
396.295	2.58
396.655	2.58
397.015	2.58
397.376	2.59
397.736	2.58
398.096	2.59
398.456	2.59
398.816	2.59
399.176	2.59
399.535	2.59
399.895	2.59
400.255	2.59
400.615	2.6
400.975	2.6
401.334	2.6
401.694	2.6
402.054	2.61
402.413	2.61
402.773	2.6
403.132	2.61
403.492	2.61
403.851	2.61
404.211	2.61
404.57	2.62
404.929	2.62
405.288	2.62
405.648	2.62
406.007	2.62
406.366	2.62
406.725	2.62
407.084	2.62
407.443	2.62
407.802	2.62
408.161	2.62
408.52	2.62
408.879	2.63
409.238	2.63
409.596	2.63
409.955	2.63
410.314	2.64
410.673	2.64
411.031	2.64
411.39	2.64
411.748	2.65
412.107	2.65
412.465	2.66
412.824	2.68
413.182	2.69
413.54	2.71
413.899	2.73
414.257	2.75
414.615	2.78
414.974	2.81
415.332	2.83
415.69	2.86
416.048	2.88
416.406	2.91
416.764	2.94
417.122	2.96
417.48	2.98
417.838	3.01
418.195	3.03
418.553	3.04
418.911	3.05
419.269	3.06
419.626	3.06
419.984	3.05
420.342	3.05
420.699	3.04
421.057	3.03
421.414	3.02
421.772	3.01
422.129	3.01
422.486	3.01
422.844	3.01
423.201	3.01
423.558	3.01
423.915	3.01
424.273	3.01
424.63	3.01
424.987	3.01
425.344	3.01
425.701	3.01
426.058	3.01
426.415	3.02
426.772	3.01
427.128	3.01
427.485	3.01
427.842	3
428.199	2.99
428.555	2.98
428.912	2.97
429.269	2.95
429.625	2.93
429.982	2.91
430.338	2.89
430.695	2.88
431.051	2.86
431.407	2.84
431.764	2.83
432.12	2.82
432.476	2.81
432.832	2.8
433.189	2.8
433.545	2.81
433.901	2.81
434.257	2.83
434.613	2.85
434.969	2.87
435.325	2.89
435.681	2.92
436.036	2.93
436.392	2.95
436.748	2.96
437.104	2.97
437.459	2.98
437.815	2.99
438.171	3.01
438.526	3.02
438.882	3.04
439.237	3.07
439.593	3.1
439.948	3.12
440.304	3.15
440.659	3.17
441.014	3.18
441.369	3.2
441.725	3.21
442.08	3.23
442.435	3.24
442.79	3.24
443.145	3.25
443.5	3.25
443.855	3.25
444.21	3.25
444.565	3.25
444.92	3.24
445.275	3.23
445.629	3.23
445.984	3.22
446.339	3.21
446.693	3.2
447.048	3.19
447.403	3.18
447.757	3.17
448.112	3.16
448.466	3.14
448.82	3.12
449.175	3.1
449.529	3.09
449.883	3.08
450.238	3.06
450.592	3.06
450.946	3.05
451.3	3.05
451.654	3.06
452.008	3.05
452.362	3.06
452.716	3.06
453.07	3.06
453.424	3.06
453.778	3.06
454.132	3.05
454.486	3.05
454.839	3.03
455.193	3.02
455.547	3.01
455.9	2.99
456.254	2.98
456.607	2.96
456.961	2.94
457.314	2.93
457.668	2.92
458.021	2.92
458.375	2.91
458.728	2.91
459.081	2.91
459.434	2.92
459.787	2.93
460.141	2.93
460.494	2.94
460.847	2.95
461.2	2.95
461.553	2.95
461.906	2.96
462.259	2.96
462.611	2.96
462.964	2.96
463.317	2.97
463.67	2.97
464.022	2.98
464.375	2.98
464.728	2.98
465.08	2.98
465.433	2.98
465.785	2.98
466.138	2.97
466.49	2.96
466.843	2.94
467.195	2.93
467.547	2.91
467.899	2.89
468.252	2.87
468.604	2.85
468.956	2.84
469.308	2.82
469.66	2.82
470.012	2.81
470.364	2.82
470.716	2.82
471.068	2.83
471.42	2.84
471.772	2.86
472.123	2.86
472.475	2.87
472.827	2.88
473.178	2.89
473.53	2.89
473.882	2.9
474.233	2.92
474.585	2.94
474.936	2.99
475.288	3.05
475.639	3.13
475.99	3.22
476.342	3.33
476.693	3.44
477.044	3.56
477.395	3.68
477.746	3.8
478.097	3.92
478.448	4.05
478.8	4.17
479.15	4.29
479.501	4.4
479.852	4.5
480.203	4.59
480.554	4.69
480.905	4.77
481.255	4.85
481.606	4.93
481.957	5.01
482.307	5.08
482.658	5.14
483.009	5.21
483.359	5.27
483.709	5.33
484.06	5.39
484.41	5.45
484.761	5.5
485.111	5.55
485.461	5.6
485.811	5.65
486.162	5.69
486.512	5.72
486.862	5.75
487.212	5.77
487.562	5.79
487.912	5.8
488.262	5.8
488.612	5.8
488.961	5.79
489.311	5.76
489.661	5.71
490.011	5.64
490.36	5.57
490.71	5.48
491.06	5.39
491.409	5.29
491.759	5.18
492.108	5.07
492.458	4.95
492.807	4.84
493.157	4.72
493.506	4.6
493.855	4.5
494.204	4.39
494.554	4.29
494.903	4.2
495.252	4.11
495.601	4.03
495.95	3.95
496.299	3.87
496.648	3.8
496.997	3.72
497.346	3.66
497.695	3.59
498.043	3.53
498.392	3.47
498.741	3.4
499.09	3.34
499.438	3.29
499.787	3.24
500.135	3.19
500.484	3.15
500.832	3.11
501.181	3.08
501.529	3.06
501.878	3.05
502.226	3.04
502.574	3.03
502.923	3.03
503.271	3.03
503.619	3.03
503.967	3.03
504.315	3.02
504.663	3.02
505.011	3.02
505.359	3.01
505.707	3.01
506.055	3.01
506.403	3.01
506.751	3.01
507.098	3.01
507.446	3.01
507.794	3.02
508.141	3.02
508.489	3.03
508.837	3.04
509.184	3.05
509.531	3.05
509.879	3.06
510.226	3.07
510.574	3.08
510.921	3.1
511.268	3.11
511.616	3.13
511.963	3.14
512.31	3.16
512.657	3.17
513.004	3.19
513.351	3.2
513.698	3.21
514.045	3.22
514.392	3.22
514.739	3.22
515.086	3.22
515.432	3.22
515.779	3.22
516.126	3.21
516.473	3.21
516.819	3.21
517.166	3.22
517.512	3.22
517.859	3.23
518.205	3.24
518.552	3.26
518.898	3.28
519.245	3.31
519.591	3.35
519.937	3.4
520.283	3.46
520.629	3.53
520.976	3.61
521.322	3.7
521.668	3.78
522.014	3.87
522.36	3.96
522.706	4.05
523.052	4.13
523.398	4.21
523.743	4.27
524.089	4.33
524.435	4.38
524.781	4.43
525.126	4.47
525.472	4.52
525.817	4.56
526.163	4.59
526.509	4.63
526.854	4.66
527.199	4.69
527.545	4.72
527.89	4.76
528.235	4.8
528.581	4.83
528.926	4.86
529.271	4.89
529.616	4.91
529.961	4.94
530.306	4.96
530.651	4.97
530.996	4.99
531.341	5
531.686	5
532.031	5
532.376	5.01
532.721	5.01
533.065	5.01
533.41	5.02
533.755	5.01
534.099	5.01
534.444	4.99
534.788	4.96
535.133	4.94
535.477	4.9
535.822	4.86
536.166	4.82
536.51	4.77
536.855	4.72
537.199	4.67
537.543	4.61
537.887	4.56
538.231	4.52
538.576	4.48
538.92	4.44
539.264	4.4
539.608	4.35
539.951	4.31
540.295	4.26
540.639	4.22
540.983	4.17
541.327	4.12
541.671	4.08
542.014	4.03
542.358	3.99
542.701	3.95
543.045	3.93
543.389	3.91
543.732	3.9
544.075	3.89
544.419	3.87
544.762	3.87
545.105	3.86
545.449	3.85
545.792	3.84
546.135	3.83
546.478	3.82
546.821	3.81
547.165	3.78
547.508	3.76
547.851	3.72
548.194	3.68
548.536	3.64
548.879	3.59
549.222	3.54
549.565	3.5
549.908	3.44
550.25	3.39
550.593	3.35
550.936	3.31
551.278	3.28
551.621	3.26
551.963	3.23
552.306	3.21
552.648	3.2
552.991	3.19
553.333	3.18
553.675	3.17
554.017	3.17
554.36	3.17
554.702	3.17
555.044	3.18
555.386	3.19
555.728	3.2
556.07	3.21
556.412	3.22
556.754	3.23
557.096	3.22
557.438	3.22
557.78	3.22
558.121	3.22
558.463	3.22
558.805	3.22
559.147	3.23
559.488	3.23
559.83	3.23
560.171	3.23
560.513	3.23
560.854	3.23
561.196	3.24
561.537	3.24
561.878	3.24
562.22	3.24
562.561	3.24
562.902	3.24
563.243	3.24
563.584	3.24
563.925	3.25
564.266	3.25
564.607	3.25
564.948	3.25
565.289	3.25
565.63	3.25
565.971	3.26
566.312	3.26
566.653	3.26
566.993	3.26
567.334	3.27
567.675	3.27
568.015	3.27
568.356	3.27
568.696	3.27
569.037	3.27
569.377	3.27
569.718	3.28
570.058	3.28
570.398	3.28
570.739	3.28
571.079	3.27
571.419	3.28
571.759	3.28
572.099	3.28
572.439	3.28
572.779	3.28
573.119	3.28
573.459	3.28
573.799	3.28
574.139	3.28
574.479	3.28
574.819	3.28
575.158	3.28
575.498	3.28
575.838	3.28
576.177	3.28
576.517	3.28
576.856	3.28
577.196	3.28
577.535	3.28
577.875	3.28
578.214	3.28
578.553	3.28
578.893	3.28
579.232	3.28
579.571	3.28
579.91	3.28
580.25	3.28
580.589	3.28
580.928	3.27
581.267	3.27
581.606	3.27
581.945	3.28
582.283	3.28
582.622	3.28
582.961	3.28
583.3	3.28
583.639	3.28
583.977	3.28
584.316	3.29
584.654	3.29
584.993	3.3
585.332	3.3
585.67	3.3
586.008	3.3
586.347	3.3
586.685	3.31
587.024	3.31
587.362	3.31
587.7	3.31
588.038	3.32
588.376	3.31
588.715	3.31
589.053	3.31
589.391	3.32
589.729	3.32
590.067	3.33
590.404	3.33
590.742	3.33
591.08	3.33
591.418	3.33
591.756	3.34
592.093	3.34
592.431	3.34
592.769	3.34
593.106	3.35
593.444	3.35
593.781	3.35
594.119	3.35
594.456	3.35
594.793	3.35
595.131	3.35
595.468	3.35
595.805	3.34
596.143	3.34
596.48	3.34
596.817	3.34
597.154	3.34
597.491	3.34
597.828	3.35
598.165	3.35
598.502	3.36
598.839	3.36
599.176	3.36
599.512	3.36
599.849	3.37
600.186	3.37
600.523	3.37
600.859	3.37
601.196	3.37
601.532	3.37
601.869	3.37
602.205	3.37
602.542	3.38
602.878	3.38
603.215	3.38
603.551	3.38
603.887	3.38
604.223	3.38
604.56	3.38
604.896	3.38
605.232	3.38
605.568	3.38
605.904	3.38
606.24	3.38
606.576	3.38
606.912	3.38
607.248	3.38
607.583	3.38
607.919	3.38
608.255	3.39
608.591	3.39
608.926	3.39
609.262	3.39
609.597	3.39
609.933	3.39
610.268	3.4
610.604	3.4
610.939	3.4
611.275	3.4
611.61	3.4
611.945	3.39
612.281	3.39
612.616	3.39
612.951	3.38
613.286	3.38
613.621	3.38
613.956	3.38
614.291	3.38
614.626	3.38
614.961	3.38
615.296	3.38
615.631	3.38
615.966	3.38
616.3	3.37
616.635	3.37
616.97	3.37
617.304	3.37
617.639	3.37
617.973	3.37
618.308	3.37
618.642	3.36
618.977	3.36
619.311	3.37
619.646	3.37
619.98	3.37
620.314	3.38
620.648	3.38
620.983	3.38
621.317	3.38
621.651	3.38
621.985	3.39
622.319	3.39
622.653	3.4
622.987	3.4
623.321	3.41
623.655	3.42
623.988	3.41
624.322	3.41
624.656	3.41
624.99	3.41
625.323	3.41
625.657	3.42
625.99	3.42
626.324	3.42
626.657	3.42
626.991	3.43
627.324	3.43
627.658	3.43
627.991	3.43
628.324	3.43
628.657	3.44
628.991	3.45
629.324	3.45
629.657	3.45
629.99	3.45
630.323	3.46
630.656	3.46
630.989	3.47
631.322	3.46
631.655	3.47
631.987	3.47
632.32	3.48
632.653	3.48
632.986	3.49
633.318	3.49
633.651	3.49
633.984	3.48
634.316	3.48
634.649	3.48
634.981	3.49
635.313	3.49
635.646	3.49
635.978	3.49
636.31	3.49
636.643	3.5
636.975	3.5
637.307	3.5
637.639	3.5
637.971	3.5
638.303	3.49
638.635	3.51
638.967	3.51
639.299	3.51
639.631	3.51
639.963	3.52
640.295	3.52
640.626	3.52
640.958	3.52
641.29	3.52
641.621	3.53
641.953	3.53
642.285	3.53
642.616	3.53
642.948	3.52
643.279	3.53
643.61	3.53
643.942	3.54
644.273	3.54
644.604	3.54
644.936	3.55
645.267	3.54
645.598	3.54
645.929	3.54
646.26	3.54
646.591	3.54
646.922	3.53
647.253	3.54
647.584	3.55
647.915	3.54
648.245	3.55
648.576	3.55
648.907	3.55
649.238	3.55
649.568	3.55
649.899	3.54
650.229	3.55
650.56	3.54
650.89	3.54
651.221	3.55
651.551	3.55
651.882	3.55
652.212	3.55
652.542	3.55
652.872	3.55
653.203	3.55
653.533	3.55
653.863	3.55
654.193	3.55
654.523	3.55
654.853	3.56
655.183	3.56
655.513	3.56
655.843	3.56
656.172	3.56
656.502	3.56
656.832	3.57
657.162	3.56
657.491	3.56
657.821	3.56
658.15	3.57
658.48	3.57
658.809	3.57
659.139	3.57
659.468	3.58
659.798	3.58
660.127	3.58
660.456	3.59
660.785	3.59
661.115	3.59
661.444	3.6
661.773	3.61
662.102	3.61
662.431	3.6
662.76	3.61
663.089	3.62
663.418	3.62
663.747	3.63
664.076	3.64
664.404	3.64
664.733	3.65
665.062	3.66
665.39	3.66
665.719	3.66
666.048	3.67
666.376	3.66
666.705	3.66
667.033	3.67
667.362	3.67
667.69	3.66
668.018	3.67
668.347	3.67
668.675	3.68
669.003	3.69
669.331	3.7
669.659	3.7
669.987	3.7
670.315	3.7
670.643	3.71
670.971	3.72
671.299	3.72
671.627	3.71
671.955	3.72
672.283	3.72
672.61	3.72
672.938	3.73
673.266	3.73
673.593	3.73
673.921	3.72
674.249	3.74
674.576	3.73
674.904	3.72
675.231	3.72
675.558	3.72
675.886	3.73
676.213	3.73
676.54	3.73
676.867	3.72
677.195	3.72
677.522	3.71
677.849	3.72
678.176	3.71
678.503	3.7
678.83	3.71
679.157	3.71
679.484	3.72
679.81	3.73
680.137	3.73
680.464	3.73
680.791	3.73
681.117	3.74
681.444	3.75
681.771	3.75
682.097	3.75
682.424	3.75
682.75	3.75
683.077	3.75
683.403	3.76
683.729	3.76
684.056	3.75
684.382	3.75
684.708	3.75
685.034	3.76
685.36	3.77
685.686	3.76
686.012	3.76
686.339	3.76
686.664	3.75
686.99	3.75
687.316	3.76
687.642	3.76
687.968	3.78
688.294	3.79
688.619	3.78
688.945	3.78
689.271	3.78
689.596	3.77
689.922	3.78
690.247	3.78
690.573	3.78
690.898	3.78
691.224	3.79
691.549	3.8
691.874	3.8
692.2	3.8
692.525	3.81
692.85	3.82
693.175	3.82
693.5	3.83
693.825	3.84
694.15	3.84
694.475	3.84
694.8	3.84
695.125	3.84
695.45	3.83
695.775	3.82
696.099	3.82
696.424	3.81
696.749	3.81
697.073	3.82
697.398	3.82
697.723	3.84
698.047	3.83
698.372	3.84
698.696	3.83
699.02	3.84
699.345	3.84
699.669	3.84
699.993	3.86
700.318	3.86
700.642	3.87
700.966	3.85
701.29	3.84
701.614	3.84
701.938	3.86
702.262	3.87
702.586	3.86
702.91	3.87
703.234	3.87
703.557	3.86
703.881	3.88
704.205	3.88
704.529	3.89
704.852	3.89
705.176	3.9
705.499	3.89
705.823	3.89
706.146	3.87
706.47	3.86
706.793	3.85
707.117	3.85
707.44	3.84
707.763	3.84
708.086	3.85
708.409	3.86
708.733	3.87
709.056	3.88
709.379	3.88
709.702	3.88
710.025	3.89
710.348	3.88
710.671	3.88
710.993	3.86
711.316	3.88
711.639	3.88
711.962	3.89
712.284	3.9
712.607	3.91
712.93	3.9
713.252	3.89
713.575	3.91
713.897	3.91
714.22	3.92
714.542	3.93
714.864	3.91
715.187	3.92
715.509	3.92
715.831	3.92
716.153	3.92
716.475	3.94
716.798	3.93
717.12	3.92
717.442	3.94
717.764	3.95
718.085	3.94
718.407	3.95
718.729	3.96
719.051	3.96
719.373	3.97
719.695	3.98
720.016	3.98
720.338	3.98
720.659	3.98
720.981	4
721.302	3.98
721.624	3.99
721.945	3.99
722.267	3.99
722.588	4.01
722.909	4.02
723.231	4.03
723.552	4.04
723.873	4.05
724.194	4.08
724.515	4.08
724.836	4.07
725.157	4.07
725.478	4.06
725.799	4.07
726.12	4.09
726.441	4.1
726.762	4.09
727.083	4.08
727.403	4.08
727.724	4.08
728.045	4.12
728.365	4.13
728.686	4.13
729.006	4.15
729.327	4.18
729.647	4.17
729.967	4.19
730.288	4.21
730.608	4.21
730.928	4.2
731.249	4.22
731.569	4.2
731.889	4.2
732.209	4.2
732.529	4.19
732.849	4.21
733.169	4.23
733.489	4.26
733.809	4.28
734.129	4.29
734.448	4.32
734.768	4.33
735.088	4.33
735.408	4.34
735.727	4.33
736.047	4.34
736.366	4.36
736.686	4.36
737.005	4.37
737.325	4.36
737.644	4.33
737.963	4.33
738.283	4.34
738.602	4.36
738.921	4.36
739.24	4.37
739.56	4.36
739.879	4.35
740.198	4.35
740.517	4.37
740.836	4.37
741.155	4.37
741.473	4.35
741.792	4.32
742.111	4.31
742.43	4.3
742.748	4.29
743.067	4.32
743.386	4.3
743.704	4.3
744.023	4.3
744.341	4.29
744.66	4.32
744.978	4.32
745.297	4.33
745.615	4.37
745.933	4.36
746.252	4.34
746.57	4.33
746.888	4.33
747.206	4.3
747.524	4.28
747.842	4.27
748.16	4.25
748.478	4.22
748.796	4.2
749.114	4.2
749.432	4.2
749.749	4.23
750.067	4.24
750.385	4.24
750.703	4.28
751.02	4.28
751.338	4.28
751.655	4.28
751.973	4.29
752.29	4.29
752.608	4.31
752.925	4.34
753.242	4.36
753.56	4.36
753.877	4.39
754.194	4.38
754.511	4.39
754.828	4.39
755.145	4.4
755.462	4.41
755.779	4.43
756.096	4.43
756.413	4.43
756.73	4.44
757.047	4.42
757.364	4.42
757.68	4.42
757.997	4.43
758.314	4.42
758.63	4.41
758.947	4.43
759.264	4.44
759.58	4.44
759.896	4.46
760.213	4.47
760.529	4.49
760.846	4.51
761.162	4.52
761.478	4.54
761.794	4.57
762.11	4.56
762.426	4.57
762.743	4.55
763.059	4.53
763.375	4.55
763.69	4.55
764.006	4.56
764.322	4.56
764.638	4.57
764.954	4.57
765.27	4.58
765.585	4.57
765.901	4.57
766.216	4.57
766.532	4.57
766.848	4.55
767.163	4.58
767.478	4.57
767.794	4.6
768.109	4.59
768.424	4.57
768.74	4.57
769.055	4.55
769.37	4.55
769.685	4.55
770	4.58
770.315	4.59
770.63	4.58
770.945	4.59
771.26	4.59
771.575	4.61
771.89	4.61
772.205	4.62
772.52	4.61
772.834	4.61
773.149	4.62
773.464	4.6
773.778	4.58
774.093	4.57
774.407	4.57
774.722	4.55
775.036	4.57
775.351	4.54
775.665	4.56
775.979	4.57
776.293	4.56
776.608	4.56
776.922	4.55
777.236	4.54
777.55	4.53
777.864	4.52
778.178	4.49
778.492	4.52
778.806	4.51
779.12	4.5
779.434	4.52
779.747	4.55
780.061	4.54
780.375	4.58
780.689	4.57
781.002	4.58
781.316	4.6
781.629	4.61
781.943	4.65
782.256	4.64
782.57	4.62
782.883	4.63
783.196	4.6
783.51	4.6
783.823	4.62
784.136	4.59
784.449	4.57
784.762	4.55
785.075	4.56
785.388	4.55
785.701	4.49
786.014	4.54
786.327	4.56
786.64	4.58
786.953	4.64
787.266	4.67
787.578	4.69
787.891	4.71
788.204	4.7
788.516	4.7
788.829	4.74
789.141	4.73
789.454	4.74
789.766	4.74
790.079	4.74
790.391	4.75
790.703	4.8
791.016	4.83
791.328	4.8
791.64	4.82
791.952	4.85
792.264	4.81
792.576	4.78
792.888	4.78
793.2	4.79
793.512	4.81
793.824	4.85
794.136	4.82
794.448	4.83
794.76	4.83
795.071	4.85
795.383	4.9
795.695	4.88
796.006	4.9
796.318	4.89
796.629	4.9
796.941	4.93
797.252	4.97
797.564	4.96
797.875	4.96
798.186	4.98
798.497	5.04
798.809	4.98
799.12	4.94
799.431	4.94
799.742	4.93
800.053	4.94
800.364	4.92
800.675	4.9
800.986	4.94
801.297	5
801.608	4.99
801.918	5
802.229	5.01
802.54	5.03
802.851	5.05
803.161	5.04
803.472	5.02
803.782	4.98
804.093	5
804.403	5.01
804.714	5
805.024	5.03
805.334	5.05
805.645	5.05
805.955	5
806.265	5.02
806.575	5
806.885	5.02
807.195	5.03
807.505	5.06
807.815	5.09
808.125	5.1
808.435	5.1
808.745	5.08
809.055	5.11
809.365	5.06
809.674	5.07
809.984	5.04
810.294	5.11
810.603	5.08
810.913	5.06
811.222	5.06
811.532	5.06
811.841	5.1
812.151	5.13
812.46	5.13
812.769	5.09
813.079	5.13
813.388	5.16
813.697	5.13
814.006	5.11
814.315	5.04
814.624	5.07
814.933	5.1
815.242	5.13
815.551	5.14
815.86	5.18
816.169	5.19
816.478	5.25
816.786	5.3
817.095	5.3
817.404	5.28
817.712	5.28
818.021	5.31
818.33	5.35
818.638	5.4
818.947	5.39
819.255	5.41
819.563	5.45
819.872	5.47
820.18	5.46
820.488	5.47
820.796	5.47
821.105	5.47
821.413	5.51
821.721	5.53
822.029	5.55
822.337	5.57
822.645	5.56
822.953	5.57
823.26	5.59
823.568	5.62
823.876	5.63
824.184	5.65
824.491	5.65
824.799	5.64
825.107	5.64
825.414	5.65
825.722	5.65
826.029	5.66
826.337	5.68
826.644	5.67
826.951	5.67
827.259	5.68
827.566	5.66
827.873	5.62
828.18	5.62
828.488	5.63
828.795	5.63
829.102	5.63
829.409	5.61
829.716	5.62
830.023	5.64
830.329	5.67
830.636	5.68
830.943	5.69
831.25	5.69
831.557	5.7
831.863	5.71
832.17	5.71
832.476	5.7
832.783	5.71
833.089	5.69
833.396	5.69
833.702	5.69
834.009	5.7
834.315	5.68
834.621	5.67
834.928	5.67
835.234	5.69
835.54	5.64
835.846	5.59
836.152	5.54
836.458	5.53
836.764	5.51
837.07	5.53
837.376	5.53
837.682	5.53
837.988	5.53
838.293	5.5
838.599	5.45
838.905	5.37
839.211	5.37
839.516	5.36
839.822	5.34
840.127	5.42
840.433	5.48
840.738	5.53
841.044	5.5
841.349	5.49
841.654	5.48
841.959	5.47
842.265	5.5
842.57	5.54
842.875	5.49
843.18	5.41
843.485	5.31
843.79	5.29
844.095	5.27
844.4	5.25
844.705	5.28
845.01	5.17
845.315	5.08
845.619	5.05
845.924	5.05
846.229	5.04
846.533	5.06
846.838	5.09
847.142	4.98
847.447	5.01
847.751	5.02
848.056	4.99
848.36	5.08
848.664	5.09
848.969	5.11
849.273	5.09
849.577	4.95
849.881	5.04
850.185	5.11
850.489	5.05
850.794	5.14
851.097	5.18
851.401	5.45
851.705	5.53
852.009	5.69
852.313	5.75
852.617	5.73
852.92	5.72
853.224	5.7
853.528	5.73
853.831	5.75
854.135	5.69
854.438	5.72
854.742	5.57
855.045	5.36
855.349	5.51
855.652	5.63
855.955	5.78
856.259	5.83
856.562	5.87
856.865	5.92
857.168	5.76
857.471	5.92
857.774	6
858.077	5.96
858.38	5.94
858.683	5.81
858.986	5.74
859.289	5.64
859.592	5.81
859.894	5.82
860.197	5.87
860.5	5.84
860.802	5.81
861.105	5.85
861.407	5.89
861.71	5.77
862.012	5.83
862.315	5.58
862.617	5.58
862.919	5.71
863.222	5.61
863.524	5.63
863.826	5.62
864.128	5.52
864.43	5.41
864.732	5.29
865.034	5.37
865.336	5.36
865.638	5.24
865.94	5.18
866.242	5.33
866.544	5.56
866.846	5.63
867.147	5.79
867.449	5.91
867.751	5.87
868.052	5.91
868.354	5.92
868.655	5.91
868.957	5.91
869.258	5.9
869.56	6.07
869.861	6.05
870.162	6.08
870.463	6.39
870.765	6.43
871.066	6.67
871.367	6.65
871.668	6.67
871.969	6.65
872.27	6.58
872.571	6.59
872.872	6.69
873.173	6.8
873.473	6.82
873.774	6.77
874.075	6.96
874.376	7.04
874.676	7.22
874.977	7.22
875.277	7.19
875.578	7.3
875.878	7.34
876.179	7.23
876.479	7.3
876.78	7.41
877.08	7.57
877.38	7.47
877.68	7.66
877.981	7.82
878.281	7.93
878.581	7.85
