Data from UWBM53665_Reflection_00001.txt Node
Date: Sun May 02 13:11:56 EDT 2021
User: vgr7
Spectrometer: USB2G7710
Scans to average: 10
Trigger mode: 4
Integration Time (sec): 1.000000E-1
Electric dark correction enabled: true
Boxcar width: 20
XAxis mode: Wavelengths
Number of Pixels in Spectrum: 2048
>>>>>Begin Spectral Data<<<<<
177.721	101.65
178.105	102.38
178.488	102.27
178.871	102.58
179.254	101.1
179.636	99.43
180.019	96.35
180.402	92.97
180.785	88.53
181.168	85.67
181.55	81.52
181.933	118.78
182.316	119.98
182.698	120.01
183.081	121.89
183.463	124.01
183.846	124.98
184.228	125.18
184.611	126.7
184.993	130.82
185.376	131.75
185.758	-115.29
186.14	-50.74
186.522	-16.05
186.904	-1.65
187.287	7.53
187.669	11.53
188.051	12.82
188.433	18.38
188.815	15.66
189.197	15.66
189.579	15.38
189.961	15.16
190.342	11.79
190.724	15.34
191.106	13.35
191.488	13.36
191.869	8.62
192.251	8.91
192.633	5.8
193.014	3.57
193.396	2.07
193.777	8.61
194.159	8.1
194.54	6.45
194.922	7.4
195.303	7.98
195.684	10.08
196.065	10.46
196.447	9.59
196.828	9.78
197.209	11.4
197.59	3.54
197.971	1.63
198.352	1.92
198.733	4.9
199.114	5.99
199.495	5.25
199.876	5.27
200.257	4.59
200.638	4.43
201.018	-2.25
201.399	-3.94
201.78	-6.45
202.16	-7.4
202.541	-6.35
202.922	-6.59
203.302	-10.89
203.683	-11.26
204.063	-13.88
204.444	-12.33
204.824	-9.91
205.204	-7.93
205.585	1.78
205.965	2.2
206.345	2.97
206.725	-1.54
207.106	-1.3
207.486	-0.52
207.866	-0.29
208.246	1.12
208.626	2.96
209.006	7.85
209.386	2.75
209.766	3.67
210.145	2.73
210.525	1.9
210.905	3.52
211.285	4.84
211.664	3.96
212.044	4.41
212.424	3.66
212.803	-1.24
213.183	-0.21
213.562	1.13
213.942	0.67
214.321	-3.14
214.701	-4.57
215.08	-2.41
215.459	-2.4
215.838	-3.95
216.218	-1.98
216.597	-2.11
216.976	-5.51
217.355	-4.62
217.734	-4.21
218.113	-4.38
218.492	-3.85
218.871	-2.26
219.25	-1.64
219.629	-1.99
220.008	-2.21
220.387	-1.83
220.766	-1.03
221.144	-0.76
221.523	0.26
221.902	1.17
222.28	1.87
222.659	2.66
223.037	2.49
223.416	3.63
223.794	3.71
224.173	3.2
224.551	2.67
224.929	3.37
225.308	3.97
225.686	4.12
226.064	4.41
226.442	4.22
226.821	3.26
227.199	3.25
227.577	3.26
227.955	2.72
228.333	2.31
228.711	2.77
229.089	2.96
229.467	2.66
229.845	3.42
230.222	3.62
230.6	3.72
230.978	3.78
231.356	3.53
231.733	3.24
232.111	3.25
232.488	3.4
232.866	3.38
233.243	2.99
233.621	3.17
233.998	3.1
234.376	3.23
234.753	3.33
235.13	3.36
235.508	3.84
235.885	3.77
236.262	3.71
236.639	3.72
237.016	3.68
237.393	3.65
237.77	3.52
238.147	3.46
238.524	3.51
238.901	3.47
239.278	3.47
239.655	3.53
240.032	3.52
240.409	3.53
240.785	3.45
241.162	3.5
241.539	3.42
241.915	3.44
242.292	3.46
242.668	3.41
243.045	3.36
243.421	3.27
243.798	3.25
244.174	3.22
244.551	3.17
244.927	3
245.303	2.95
245.679	2.95
246.056	2.93
246.432	2.89
246.808	2.65
247.184	2.64
247.56	2.6
247.936	2.58
248.312	2.58
248.688	2.65
249.064	2.62
249.44	2.6
249.815	2.58
250.191	2.53
250.567	2.52
250.943	2.6
251.318	2.63
251.694	2.6
252.069	2.55
252.445	2.57
252.82	2.67
253.196	2.68
253.571	2.64
253.947	2.72
254.322	2.71
254.697	2.86
255.073	2.84
255.448	2.83
255.823	2.81
256.198	2.77
256.573	2.59
256.948	2.59
257.323	2.59
257.698	2.52
258.073	2.51
258.448	2.41
258.823	2.39
259.198	2.37
259.573	2.39
259.948	2.44
260.322	2.41
260.697	2.41
261.072	2.42
261.446	2.4
261.821	2.38
262.195	2.36
262.57	2.34
262.944	2.34
263.319	2.35
263.693	2.35
264.067	2.37
264.442	2.46
264.816	2.44
265.19	2.42
265.564	2.48
265.938	2.45
266.313	2.5
266.687	2.46
267.061	2.47
267.435	2.46
267.809	2.45
268.183	2.42
268.556	2.46
268.93	2.46
269.304	2.44
269.678	2.39
270.051	2.36
270.425	2.37
270.799	2.4
271.172	2.42
271.546	2.41
271.919	2.41
272.293	2.39
272.666	2.4
273.04	2.43
273.413	2.37
273.787	2.37
274.16	2.38
274.533	2.43
274.906	2.42
275.279	2.42
275.653	2.42
276.026	2.42
276.399	2.38
276.772	2.37
277.145	2.4
277.518	2.43
277.891	2.45
278.263	2.46
278.636	2.44
279.009	2.48
279.382	2.45
279.755	2.41
280.127	2.44
280.5	2.45
280.872	2.42
281.245	2.52
281.617	2.52
281.99	2.54
282.362	2.57
282.735	2.55
283.107	2.53
283.479	2.56
283.852	2.56
284.224	2.59
284.596	2.57
284.968	2.46
285.34	2.46
285.713	2.43
286.085	2.35
286.457	2.34
286.829	2.32
287.201	2.33
287.572	2.38
287.944	2.38
288.316	2.4
288.688	2.44
289.06	2.43
289.431	2.43
289.803	2.42
290.175	2.43
290.546	2.45
290.918	2.45
291.289	2.41
291.661	2.43
292.032	2.39
292.403	2.4
292.775	2.49
293.146	2.49
293.517	2.52
293.889	2.6
294.26	2.59
294.631	2.6
295.002	2.65
295.373	2.67
295.744	2.65
296.115	2.66
296.486	2.6
296.857	2.6
297.228	2.61
297.599	2.6
297.97	2.6
298.34	2.62
298.711	2.56
299.082	2.54
299.452	2.56
299.823	2.59
300.194	2.6
300.564	2.59
300.935	2.6
301.305	2.57
301.676	2.55
302.046	2.56
302.416	2.56
302.787	2.55
303.157	2.48
303.527	2.49
303.897	2.49
304.267	2.5
304.637	2.51
305.008	2.52
305.378	2.53
305.748	2.51
306.117	2.58
306.487	2.63
306.857	2.68
307.227	2.68
307.597	2.67
307.967	2.67
308.336	2.66
308.706	2.68
309.076	2.67
309.445	2.67
309.815	2.56
310.184	2.56
310.554	2.51
310.923	2.55
311.293	2.57
311.662	2.56
312.031	2.54
312.401	2.53
312.77	2.5
313.139	2.49
313.508	2.51
313.877	2.46
314.246	2.46
314.616	2.43
314.985	2.38
315.353	2.39
315.722	2.38
316.091	2.39
316.46	2.4
316.829	2.42
317.198	2.43
317.567	2.57
317.935	2.58
318.304	2.64
318.672	2.68
319.041	2.68
319.41	2.69
319.778	2.71
320.147	2.73
320.515	2.73
320.883	2.72
321.252	2.66
321.62	2.69
321.988	2.68
322.357	2.69
322.725	2.75
323.093	2.76
323.461	2.76
323.829	2.76
324.197	2.75
324.565	2.73
324.933	2.73
325.301	2.71
325.669	2.71
326.037	2.71
326.405	2.65
326.772	2.65
327.14	2.65
327.508	2.65
327.875	2.66
328.243	2.66
328.61	2.62
328.978	2.62
329.346	2.61
329.713	2.6
330.08	2.61
330.448	2.6
330.815	2.57
331.182	2.57
331.55	2.56
331.917	2.58
332.284	2.58
332.651	2.58
333.018	2.57
333.385	2.56
333.752	2.55
334.119	2.56
334.486	2.55
334.853	2.53
335.22	2.53
335.587	2.51
335.954	2.53
336.32	2.55
336.687	2.56
337.054	2.55
337.42	2.56
337.787	2.56
338.153	2.57
338.52	2.61
338.886	2.63
339.253	2.62
339.619	2.62
339.986	2.59
340.352	2.58
340.718	2.58
341.084	2.57
341.451	2.57
341.817	2.56
342.183	2.54
342.549	2.56
342.915	2.54
343.281	2.57
343.647	2.57
344.013	2.59
344.379	2.6
344.745	2.59
345.11	2.59
345.476	2.61
345.842	2.62
346.208	2.59
346.573	2.59
346.939	2.61
347.304	2.6
347.67	2.6
348.035	2.61
348.401	2.6
348.766	2.62
349.132	2.61
349.497	2.63
349.862	2.64
350.228	2.65
350.593	2.65
350.958	2.64
351.323	2.62
351.688	2.62
352.053	2.62
352.418	2.61
352.783	2.6
353.148	2.59
353.513	2.58
353.878	2.58
354.243	2.58
354.608	2.58
354.972	2.59
355.337	2.6
355.702	2.57
356.066	2.58
356.431	2.58
356.795	2.58
357.16	2.56
357.524	2.56
357.889	2.56
358.253	2.56
358.618	2.57
358.982	2.58
359.346	2.58
359.71	2.59
360.075	2.6
360.439	2.59
360.803	2.58
361.167	2.58
361.531	2.59
361.895	2.59
362.259	2.59
362.623	2.59
362.987	2.59
363.351	2.59
363.714	2.6
364.078	2.6
364.442	2.6
364.806	2.61
365.169	2.6
365.533	2.59
365.896	2.59
366.26	2.59
366.623	2.58
366.987	2.58
367.35	2.59
367.714	2.6
368.077	2.6
368.44	2.6
368.803	2.61
369.167	2.6
369.53	2.6
369.893	2.62
370.256	2.62
370.619	2.64
370.982	2.63
371.345	2.62
371.708	2.63
372.071	2.63
372.434	2.64
372.797	2.66
373.159	2.67
373.522	2.66
373.885	2.66
374.247	2.65
374.61	2.64
374.973	2.63
375.335	2.63
375.698	2.63
376.06	2.64
376.423	2.63
376.785	2.63
377.147	2.62
377.51	2.62
377.872	2.62
378.234	2.62
378.596	2.63
378.958	2.65
379.321	2.65
379.683	2.65
380.045	2.65
380.407	2.65
380.769	2.64
381.13	2.65
381.492	2.65
381.854	2.66
382.216	2.65
382.578	2.65
382.939	2.66
383.301	2.66
383.663	2.66
384.024	2.65
384.386	2.66
384.747	2.65
385.109	2.64
385.47	2.64
385.832	2.65
386.193	2.65
386.554	2.64
386.916	2.64
387.277	2.64
387.638	2.66
387.999	2.66
388.36	2.66
388.721	2.66
389.082	2.66
389.443	2.67
389.804	2.67
390.165	2.67
390.526	2.68
390.887	2.67
391.248	2.67
391.609	2.68
391.969	2.68
392.33	2.69
392.691	2.69
393.051	2.69
393.412	2.68
393.772	2.68
394.133	2.69
394.493	2.68
394.854	2.68
395.214	2.68
395.574	2.68
395.935	2.68
396.295	2.67
396.655	2.67
397.015	2.68
397.376	2.67
397.736	2.67
398.096	2.67
398.456	2.67
398.816	2.68
399.176	2.67
399.535	2.68
399.895	2.68
400.255	2.68
400.615	2.68
400.975	2.68
401.334	2.68
401.694	2.68
402.054	2.68
402.413	2.66
402.773	2.66
403.132	2.67
403.492	2.66
403.851	2.66
404.211	2.66
404.57	2.67
404.929	2.68
405.288	2.68
405.648	2.68
406.007	2.69
406.366	2.69
406.725	2.7
407.084	2.7
407.443	2.7
407.802	2.69
408.161	2.69
408.52	2.69
408.879	2.69
409.238	2.69
409.596	2.69
409.955	2.7
410.314	2.71
410.673	2.7
411.031	2.71
411.39	2.71
411.748	2.72
412.107	2.73
412.465	2.74
412.824	2.76
413.182	2.77
413.54	2.79
413.899	2.81
414.257	2.83
414.615	2.86
414.974	2.88
415.332	2.92
415.69	2.95
416.048	2.96
416.406	3
416.764	3.02
417.122	3.04
417.48	3.07
417.838	3.09
418.195	3.11
418.553	3.13
418.911	3.14
419.269	3.14
419.626	3.14
419.984	3.14
420.342	3.13
420.699	3.11
421.057	3.1
421.414	3.09
421.772	3.09
422.129	3.08
422.486	3.08
422.844	3.08
423.201	3.08
423.558	3.08
423.915	3.08
424.273	3.07
424.63	3.07
424.987	3.07
425.344	3.07
425.701	3.07
426.058	3.07
426.415	3.07
426.772	3.07
427.128	3.06
427.485	3.05
427.842	3.05
428.199	3.04
428.555	3.03
428.912	3.02
429.269	3
429.625	2.99
429.982	2.97
430.338	2.95
430.695	2.94
431.051	2.91
431.407	2.9
431.764	2.89
432.12	2.87
432.476	2.86
432.832	2.86
433.189	2.86
433.545	2.87
433.901	2.88
434.257	2.89
434.613	2.91
434.969	2.93
435.325	2.95
435.681	2.98
436.036	2.99
436.392	3
436.748	3.01
437.104	3.01
437.459	3.02
437.815	3.04
438.171	3.05
438.526	3.07
438.882	3.09
439.237	3.11
439.593	3.14
439.948	3.16
440.304	3.19
440.659	3.21
441.014	3.22
441.369	3.24
441.725	3.25
442.08	3.27
442.435	3.28
442.79	3.28
443.145	3.28
443.5	3.29
443.855	3.29
444.21	3.29
444.565	3.28
444.92	3.28
445.275	3.27
445.629	3.26
445.984	3.26
446.339	3.26
446.693	3.26
447.048	3.24
447.403	3.23
447.757	3.22
448.112	3.2
448.466	3.19
448.82	3.17
449.175	3.16
449.529	3.14
449.883	3.13
450.238	3.11
450.592	3.11
450.946	3.1
451.3	3.1
451.654	3.11
452.008	3.11
452.362	3.12
452.716	3.12
453.07	3.12
453.424	3.12
453.778	3.11
454.132	3.1
454.486	3.1
454.839	3.09
455.193	3.07
455.547	3.06
455.9	3.04
456.254	3.02
456.607	3
456.961	2.98
457.314	2.97
457.668	2.96
458.021	2.96
458.375	2.95
458.728	2.95
459.081	2.95
459.434	2.96
459.787	2.96
460.141	2.97
460.494	2.97
460.847	2.98
461.2	2.98
461.553	2.99
461.906	2.99
462.259	2.99
462.611	3
462.964	3
463.317	3.01
463.67	3.01
464.022	3.01
464.375	3.01
464.728	3.01
465.08	3.01
465.433	3.01
465.785	3.01
466.138	2.99
466.49	2.98
466.843	2.97
467.195	2.96
467.547	2.94
467.899	2.93
468.252	2.9
468.604	2.89
468.956	2.87
469.308	2.86
469.66	2.85
470.012	2.85
470.364	2.85
470.716	2.85
471.068	2.86
471.42	2.88
471.772	2.89
472.123	2.9
472.475	2.91
472.827	2.92
473.178	2.93
473.53	2.94
473.882	2.95
474.233	2.97
474.585	3
474.936	3.03
475.288	3.1
475.639	3.18
475.99	3.28
476.342	3.39
476.693	3.5
477.044	3.62
477.395	3.74
477.746	3.87
478.097	3.99
478.448	4.12
478.8	4.25
479.15	4.36
479.501	4.47
479.852	4.57
480.203	4.65
480.554	4.74
480.905	4.83
481.255	4.91
481.606	4.99
481.957	5.05
482.307	5.12
482.658	5.19
483.009	5.26
483.359	5.32
483.709	5.38
484.06	5.43
484.41	5.5
484.761	5.55
485.111	5.6
485.461	5.65
485.811	5.7
486.162	5.74
486.512	5.78
486.862	5.81
487.212	5.83
487.562	5.85
487.912	5.86
488.262	5.86
488.612	5.86
488.961	5.84
489.311	5.82
489.661	5.77
490.011	5.71
490.36	5.63
490.71	5.54
491.06	5.44
491.409	5.34
491.759	5.23
492.108	5.12
492.458	5.01
492.807	4.89
493.157	4.77
493.506	4.66
493.855	4.55
494.204	4.45
494.554	4.35
494.903	4.26
495.252	4.17
495.601	4.09
495.95	4
496.299	3.92
496.648	3.85
496.997	3.78
497.346	3.71
497.695	3.64
498.043	3.59
498.392	3.53
498.741	3.47
499.09	3.41
499.438	3.36
499.787	3.31
500.135	3.26
500.484	3.22
500.832	3.19
501.181	3.16
501.529	3.14
501.878	3.13
502.226	3.12
502.574	3.11
502.923	3.11
503.271	3.11
503.619	3.11
503.967	3.11
504.315	3.12
504.663	3.11
505.011	3.11
505.359	3.11
505.707	3.11
506.055	3.1
506.403	3.1
506.751	3.11
507.098	3.1
507.446	3.11
507.794	3.11
508.141	3.12
508.489	3.13
508.837	3.15
509.184	3.16
509.531	3.16
509.879	3.17
510.226	3.19
510.574	3.2
510.921	3.21
511.268	3.23
511.616	3.24
511.963	3.26
512.31	3.27
512.657	3.28
513.004	3.3
513.351	3.32
513.698	3.32
514.045	3.33
514.392	3.34
514.739	3.34
515.086	3.34
515.432	3.34
515.779	3.34
516.126	3.34
516.473	3.34
516.819	3.34
517.166	3.35
517.512	3.36
517.859	3.36
518.205	3.37
518.552	3.39
518.898	3.42
519.245	3.45
519.591	3.48
519.937	3.53
520.283	3.6
520.629	3.68
520.976	3.76
521.322	3.85
521.668	3.94
522.014	4.03
522.36	4.12
522.706	4.2
523.052	4.29
523.398	4.37
523.743	4.44
524.089	4.5
524.435	4.55
524.781	4.6
525.126	4.64
525.472	4.69
525.817	4.73
526.163	4.77
526.509	4.8
526.854	4.84
527.199	4.87
527.545	4.9
527.89	4.94
528.235	4.98
528.581	5.01
528.926	5.04
529.271	5.08
529.616	5.11
529.961	5.13
530.306	5.15
530.651	5.18
530.996	5.2
531.341	5.21
531.686	5.21
532.031	5.21
532.376	5.21
532.721	5.21
533.065	5.21
533.41	5.21
533.755	5.21
534.099	5.18
534.444	5.16
534.788	5.13
535.133	5.1
535.477	5.07
535.822	5.03
536.166	4.98
536.51	4.93
536.855	4.88
537.199	4.81
537.543	4.76
537.887	4.7
538.231	4.66
538.576	4.62
538.92	4.57
539.264	4.54
539.608	4.49
539.951	4.45
540.295	4.41
540.639	4.36
540.983	4.31
541.327	4.29
541.671	4.24
542.014	4.2
542.358	4.15
542.701	4.12
543.045	4.09
543.389	4.07
543.732	4.05
544.075	4.04
544.419	4.03
544.762	4.01
545.105	4
545.449	3.99
545.792	3.99
546.135	3.98
546.478	3.97
546.821	3.95
547.165	3.93
547.508	3.9
547.851	3.86
548.194	3.82
548.536	3.78
548.879	3.73
549.222	3.68
549.565	3.62
549.908	3.57
550.25	3.53
550.593	3.48
550.936	3.45
551.278	3.42
551.621	3.39
551.963	3.37
552.306	3.36
552.648	3.34
552.991	3.32
553.333	3.31
553.675	3.31
554.017	3.3
554.36	3.3
554.702	3.31
555.044	3.31
555.386	3.32
555.728	3.33
556.07	3.34
556.412	3.35
556.754	3.35
557.096	3.35
557.438	3.36
557.78	3.36
558.121	3.35
558.463	3.36
558.805	3.36
559.147	3.36
559.488	3.36
559.83	3.36
560.171	3.37
560.513	3.37
560.854	3.37
561.196	3.36
561.537	3.36
561.878	3.37
562.22	3.37
562.561	3.37
562.902	3.37
563.243	3.38
563.584	3.38
563.925	3.38
564.266	3.38
564.607	3.38
564.948	3.38
565.289	3.39
565.63	3.39
565.971	3.39
566.312	3.4
566.653	3.4
566.993	3.39
567.334	3.39
567.675	3.4
568.015	3.41
568.356	3.41
568.696	3.42
569.037	3.42
569.377	3.42
569.718	3.42
570.058	3.42
570.398	3.42
570.739	3.43
571.079	3.43
571.419	3.42
571.759	3.43
572.099	3.43
572.439	3.42
572.779	3.43
573.119	3.43
573.459	3.42
573.799	3.42
574.139	3.43
574.479	3.43
574.819	3.43
575.158	3.43
575.498	3.43
575.838	3.43
576.177	3.43
576.517	3.43
576.856	3.43
577.196	3.43
577.535	3.43
577.875	3.43
578.214	3.43
578.553	3.43
578.893	3.43
579.232	3.43
579.571	3.43
579.91	3.42
580.25	3.42
580.589	3.42
580.928	3.41
581.267	3.41
581.606	3.41
581.945	3.4
582.283	3.4
582.622	3.4
582.961	3.4
583.3	3.41
583.639	3.41
583.977	3.41
584.316	3.41
584.654	3.41
584.993	3.41
585.332	3.4
585.67	3.4
586.008	3.4
586.347	3.4
586.685	3.41
587.024	3.41
587.362	3.42
587.7	3.42
588.038	3.42
588.376	3.42
588.715	3.42
589.053	3.43
589.391	3.43
589.729	3.42
590.067	3.43
590.404	3.43
590.742	3.43
591.08	3.42
591.418	3.43
591.756	3.43
592.093	3.44
592.431	3.44
592.769	3.45
593.106	3.45
593.444	3.45
593.781	3.44
594.119	3.45
594.456	3.44
594.793	3.45
595.131	3.45
595.468	3.45
595.805	3.45
596.143	3.45
596.48	3.45
596.817	3.45
597.154	3.46
597.491	3.46
597.828	3.46
598.165	3.47
598.502	3.47
598.839	3.47
599.176	3.47
599.512	3.47
599.849	3.48
600.186	3.48
600.523	3.48
600.859	3.48
601.196	3.48
601.532	3.49
601.869	3.49
602.205	3.49
602.542	3.49
602.878	3.49
603.215	3.48
603.551	3.48
603.887	3.48
604.223	3.48
604.56	3.49
604.896	3.49
605.232	3.49
605.568	3.5
605.904	3.5
606.24	3.5
606.576	3.5
606.912	3.51
607.248	3.51
607.583	3.52
607.919	3.51
608.255	3.51
608.591	3.51
608.926	3.52
609.262	3.52
609.597	3.52
609.933	3.52
610.268	3.54
610.604	3.54
610.939	3.54
611.275	3.54
611.61	3.54
611.945	3.53
612.281	3.53
612.616	3.54
612.951	3.52
613.286	3.52
613.621	3.51
613.956	3.51
614.291	3.51
614.626	3.51
614.961	3.52
615.296	3.52
615.631	3.52
615.966	3.52
616.3	3.53
616.635	3.53
616.97	3.52
617.304	3.53
617.639	3.53
617.973	3.53
618.308	3.52
618.642	3.52
618.977	3.51
619.311	3.5
619.646	3.51
619.98	3.52
620.314	3.51
620.648	3.51
620.983	3.51
621.317	3.51
621.651	3.52
621.985	3.51
622.319	3.51
622.653	3.51
622.987	3.51
623.321	3.51
623.655	3.51
623.988	3.52
624.322	3.52
624.656	3.52
624.99	3.52
625.323	3.53
625.657	3.53
625.99	3.55
626.324	3.56
626.657	3.56
626.991	3.57
627.324	3.56
627.658	3.57
627.991	3.57
628.324	3.57
628.657	3.58
628.991	3.59
629.324	3.59
629.657	3.6
629.99	3.59
630.323	3.6
630.656	3.6
630.989	3.6
631.322	3.6
631.655	3.6
631.987	3.6
632.32	3.61
632.653	3.61
632.986	3.62
633.318	3.61
633.651	3.61
633.984	3.61
634.316	3.62
634.649	3.62
634.981	3.63
635.313	3.62
635.646	3.62
635.978	3.62
636.31	3.61
636.643	3.61
636.975	3.62
637.307	3.62
637.639	3.61
637.971	3.62
638.303	3.63
638.635	3.62
638.967	3.62
639.299	3.62
639.631	3.62
639.963	3.62
640.295	3.63
640.626	3.65
640.958	3.65
641.29	3.65
641.621	3.65
641.953	3.65
642.285	3.66
642.616	3.67
642.948	3.66
643.279	3.67
643.61	3.68
643.942	3.67
644.273	3.67
644.604	3.67
644.936	3.67
645.267	3.67
645.598	3.68
645.929	3.68
646.26	3.68
646.591	3.68
646.922	3.68
647.253	3.69
647.584	3.69
647.915	3.7
648.245	3.71
648.576	3.71
648.907	3.7
649.238	3.7
649.568	3.7
649.899	3.69
650.229	3.7
650.56	3.71
650.89	3.72
651.221	3.72
651.551	3.72
651.882	3.72
652.212	3.73
652.542	3.73
652.872	3.73
653.203	3.74
653.533	3.74
653.863	3.73
654.193	3.72
654.523	3.72
654.853	3.73
655.183	3.73
655.513	3.73
655.843	3.74
656.172	3.74
656.502	3.75
656.832	3.74
657.162	3.74
657.491	3.74
657.821	3.75
658.15	3.74
658.48	3.75
658.809	3.74
659.139	3.75
659.468	3.76
659.798	3.77
660.127	3.77
660.456	3.8
660.785	3.8
661.115	3.81
661.444	3.81
661.773	3.82
662.102	3.83
662.431	3.84
662.76	3.85
663.089	3.84
663.418	3.85
663.747	3.86
664.076	3.86
664.404	3.87
664.733	3.88
665.062	3.9
665.39	3.9
665.719	3.9
666.048	3.89
666.376	3.89
666.705	3.88
667.033	3.87
667.362	3.87
667.69	3.87
668.018	3.87
668.347	3.86
668.675	3.85
669.003	3.85
669.331	3.84
669.659	3.84
669.987	3.85
670.315	3.86
670.643	3.87
670.971	3.88
671.299	3.88
671.627	3.88
671.955	3.87
672.283	3.87
672.61	3.87
672.938	3.89
673.266	3.9
673.593	3.89
673.921	3.91
674.249	3.91
674.576	3.92
674.904	3.92
675.231	3.92
675.558	3.94
675.886	3.96
676.213	3.95
676.54	3.95
676.867	3.96
677.195	3.96
677.522	3.96
677.849	3.97
678.176	3.98
678.503	3.99
678.83	4
679.157	4
679.484	4
679.81	3.99
680.137	3.99
680.464	4
680.791	4
681.117	3.99
681.444	3.98
681.771	3.98
682.097	3.98
682.424	3.98
682.75	3.96
683.077	3.97
683.403	3.97
683.729	3.96
684.056	3.97
684.382	3.95
684.708	3.95
685.034	3.96
685.36	3.96
685.686	3.97
686.012	3.99
686.339	4.01
686.664	4
686.99	4.01
687.316	4
687.642	4.03
687.968	4.05
688.294	4.05
688.619	4.06
688.945	4.06
689.271	4.06
689.596	4.07
689.922	4.09
690.247	4.1
690.573	4.11
690.898	4.13
691.224	4.13
691.549	4.12
691.874	4.1
692.2	4.12
692.525	4.13
692.85	4.12
693.175	4.13
693.5	4.14
693.825	4.15
694.15	4.14
694.475	4.15
694.8	4.14
695.125	4.15
695.45	4.18
695.775	4.19
696.099	4.19
696.424	4.19
696.749	4.2
697.073	4.21
697.398	4.2
697.723	4.21
698.047	4.22
698.372	4.22
698.696	4.2
699.02	4.2
699.345	4.19
699.669	4.19
699.993	4.19
700.318	4.18
700.642	4.18
700.966	4.18
701.29	4.18
701.614	4.18
701.938	4.17
702.262	4.18
702.586	4.19
702.91	4.2
703.234	4.21
703.557	4.19
703.881	4.18
704.205	4.2
704.529	4.22
704.852	4.21
705.176	4.23
705.499	4.25
705.823	4.26
706.146	4.27
706.47	4.26
706.793	4.27
707.117	4.39
707.44	4.39
707.763	4.36
708.086	4.38
708.409	4.37
708.733	4.36
709.056	4.36
709.379	4.35
709.702	4.38
710.025	4.38
710.348	4.21
710.671	4.21
710.993	4.21
711.316	4.19
711.639	4.21
711.962	4.21
712.284	4.21
712.607	4.23
712.93	4.24
713.252	4.26
713.575	4.23
713.897	4.22
714.22	4.22
714.542	4.26
714.864	4.33
715.187	4.37
715.509	4.36
715.831	4.34
716.153	4.34
716.475	4.31
716.798	4.29
717.12	4.47
717.442	4.49
717.764	4.48
718.085	4.41
718.407	4.41
718.729	4.39
719.051	4.4
719.373	4.41
719.695	4.41
720.016	4.39
720.338	4.31
720.659	4.33
720.981	4.35
721.302	4.34
721.624	4.36
721.945	4.35
722.267	4.34
722.588	4.34
722.909	4.35
723.231	4.38
723.552	4.39
723.873	4.42
724.194	4.42
724.515	4.47
724.836	4.59
725.157	4.58
725.478	4.6
725.799	4.61
726.12	4.6
726.441	4.61
726.762	4.63
727.083	4.63
727.403	4.62
727.724	4.57
728.045	4.51
728.365	4.51
728.686	4.57
729.006	4.59
729.327	4.6
729.647	4.6
729.967	4.6
730.288	4.62
730.608	4.6
730.928	4.61
731.249	4.61
731.569	4.62
731.889	4.62
732.209	4.64
732.529	4.64
732.849	4.68
733.169	4.7
733.489	4.69
733.809	4.73
734.129	4.75
734.448	4.78
734.768	4.77
735.088	4.78
735.408	4.77
735.727	4.77
736.047	4.8
736.366	4.8
736.686	4.8
737.005	4.8
737.325	4.77
737.644	4.75
737.963	4.74
738.283	4.76
738.602	4.76
738.921	4.79
739.24	4.79
739.56	4.78
739.879	4.79
740.198	4.79
740.517	4.8
740.836	4.82
741.155	4.81
741.473	4.86
741.792	4.85
742.111	4.85
742.43	4.87
742.748	4.85
743.067	4.85
743.386	4.87
743.704	4.89
744.023	4.92
744.341	4.91
744.66	4.92
744.978	4.87
745.297	4.87
745.615	4.85
745.933	4.84
746.252	4.82
746.57	4.73
746.888	4.71
747.206	4.68
747.524	4.67
747.842	4.69
748.16	4.7
748.478	4.69
748.796	4.66
749.114	4.64
749.432	4.64
749.749	4.68
750.067	4.7
750.385	4.73
750.703	4.72
751.02	4.72
751.338	4.72
751.655	4.79
751.973	4.79
752.29	4.79
752.608	4.85
752.925	4.87
753.242	4.97
753.56	5.01
753.877	4.99
754.194	5.05
754.511	5.02
754.828	4.99
755.145	5.04
755.462	5.06
755.779	5.07
756.096	5.11
756.413	5.1
756.73	5.04
757.047	5.04
757.364	5.05
757.68	5.09
757.997	5.09
758.314	5.1
758.63	5.1
758.947	5.15
759.264	5.15
759.58	5.18
759.896	5.15
760.213	5.18
760.529	5.19
760.846	5.15
761.162	5.15
761.478	5.15
761.794	5.15
762.11	5.16
762.426	5.2
762.743	5.16
763.059	5.22
763.375	5.25
763.69	5.28
764.006	5.29
764.322	5.32
764.638	5.31
764.954	5.32
765.27	5.33
765.585	5.3
765.901	5.32
766.216	5.19
766.532	5.15
766.848	5.14
767.163	5.18
767.478	5.25
767.794	5.28
768.109	5.28
768.424	5.29
768.74	5.33
769.055	5.34
769.37	5.38
769.685	5.4
770	5.39
770.315	5.42
770.63	5.31
770.945	5.25
771.26	5.25
771.575	5.24
771.89	5.2
772.205	5.23
772.52	5.23
772.834	5.42
773.149	5.45
773.464	5.38
773.778	5.38
774.093	5.4
774.407	5.43
774.722	5.43
775.036	5.39
775.351	5.37
775.665	5.37
775.979	5.2
776.293	5.17
776.608	5.17
776.922	5.11
777.236	5.18
777.55	5.29
777.864	5.33
778.178	5.36
778.492	5.34
778.806	5.3
779.12	5.31
779.434	5.31
779.747	5.25
780.061	5.33
780.375	5.25
780.689	5.19
781.002	5.21
781.316	5.2
781.629	5.21
781.943	5.22
782.256	5.23
782.57	5.29
782.883	5.27
783.196	5.22
783.51	5.3
783.823	5.35
784.136	5.29
784.449	5.35
784.762	5.35
785.075	5.42
785.388	5.39
785.701	5.35
786.014	5.32
786.327	5.4
786.64	5.36
786.953	5.37
787.266	5.44
787.578	5.45
787.891	5.51
788.204	5.49
788.516	5.51
788.829	5.57
789.141	5.54
789.454	5.54
789.766	5.58
790.079	5.59
790.391	5.56
790.703	5.64
791.016	5.54
791.328	5.56
791.64	5.59
791.952	5.63
792.264	5.69
792.576	5.73
792.888	5.74
793.2	5.73
793.512	5.77
793.824	5.71
794.136	5.69
794.448	5.77
794.76	5.81
795.071	5.88
795.383	5.85
795.695	6.01
796.006	6.11
796.318	6.12
796.629	6.13
796.941	6.13
797.252	6.1
797.564	6.22
797.875	6.14
798.186	6.08
798.497	6.13
798.809	6.01
799.12	5.98
799.431	6
799.742	6.01
800.053	5.9
800.364	5.98
800.675	5.97
800.986	5.95
801.297	6.07
801.608	6.08
801.918	6.13
802.229	6.14
802.54	6.09
802.851	6.07
803.161	6.06
803.472	6.07
803.782	6.03
804.093	6.08
804.403	5.98
804.714	6.08
805.024	6.06
805.334	6.21
805.645	6.21
805.955	6.28
806.265	6.25
806.575	6.29
806.885	6.23
807.195	6.2
807.505	6.19
807.815	6.08
808.125	6.11
808.435	6.06
808.745	6.02
809.055	6.02
809.365	6.08
809.674	6.08
809.984	6.14
810.294	6.11
810.603	6.08
810.913	6.31
811.222	6.25
811.532	6.34
811.841	6.36
812.151	6.39
812.46	6.38
812.769	6.46
813.079	6.51
813.388	6.56
813.697	6.52
814.006	6.39
814.315	6.47
814.624	6.45
814.933	6.39
815.242	6.32
815.551	6.36
815.86	6.31
816.169	6.28
816.478	6.25
816.786	6.2
817.095	6.21
817.404	6.2
817.712	6.23
818.021	6.17
818.33	6.18
818.638	6.21
818.947	6.22
819.255	6.24
819.563	6.26
819.872	6.29
820.18	6.32
820.488	6.36
820.796	6.36
821.105	6.35
821.413	6.37
821.721	6.39
822.029	6.42
822.337	6.5
822.645	6.48
822.953	6.48
823.26	6.51
823.568	6.53
823.876	6.5
824.184	6.5
824.491	6.49
824.799	6.49
825.107	6.5
825.414	6.51
825.722	6.52
826.029	6.48
826.337	6.5
826.644	6.51
826.951	6.52
827.259	6.54
827.566	6.58
827.873	6.6
828.18	6.58
828.488	6.58
828.795	6.59
829.102	6.61
829.409	6.65
829.716	6.66
830.023	6.69
830.329	6.73
830.636	6.76
830.943	6.86
831.25	6.89
831.557	6.88
831.863	6.9
832.17	6.91
832.476	6.92
832.783	6.89
833.089	6.87
833.396	6.83
833.702	6.82
834.009	6.75
834.315	6.76
834.621	6.84
834.928	6.81
835.234	6.81
835.54	6.83
835.846	6.85
836.152	6.83
836.458	6.85
836.764	6.82
837.07	6.87
837.376	6.75
837.682	6.64
837.988	6.68
838.293	6.56
838.599	6.62
838.905	6.58
839.211	6.62
839.516	6.68
839.822	6.75
840.127	6.7
840.433	6.8
840.738	6.75
841.044	6.78
841.349	6.83
841.654	6.88
841.959	6.92
842.265	6.93
842.57	6.9
842.875	6.85
843.18	7
843.485	6.97
843.79	7.06
844.095	7.19
844.4	7.05
844.705	7.26
845.01	7.3
845.315	7.36
845.619	7.35
845.924	7.22
846.229	7.08
846.533	7.16
846.838	7.17
847.142	6.92
847.447	6.89
847.751	6.76
848.056	6.8
848.36	6.79
848.664	6.71
848.969	6.61
849.273	6.55
849.577	6.32
849.881	6.21
850.185	6.25
850.489	6.6
850.794	6.79
851.097	6.79
851.401	6.93
851.705	7.05
852.009	7.22
852.313	7.12
852.617	7.25
852.92	7.13
853.224	7.16
853.528	6.96
853.831	6.94
854.135	6.76
854.438	6.69
854.742	6.75
855.045	6.87
855.349	7.07
855.652	7.27
855.955	7.34
856.259	7.45
856.562	7.66
856.865	7.58
857.168	7.36
857.471	7.26
857.774	7.28
858.077	7.02
858.38	7.13
858.683	7.13
858.986	7.01
859.289	7.31
859.592	7.43
859.894	7.79
860.197	7.94
860.5	7.9
860.802	8
861.105	7.94
861.407	8.26
861.71	8.17
862.012	8.29
862.315	8.57
862.617	8.44
862.919	7.88
863.222	8.06
863.524	8.15
863.826	8.44
864.128	8.58
864.43	8.52
864.732	8.56
865.034	8.82
865.336	8.83
865.638	8.8
865.94	8.72
866.242	8.71
866.544	8.37
866.846	8.74
867.147	8.44
867.449	8.22
867.751	8.3
868.052	8.25
868.354	8.02
868.655	8.03
868.957	8.14
869.258	8.22
869.56	8.24
869.861	8.41
870.162	8.24
870.463	8.34
870.765	8.36
871.066	8.49
871.367	8.46
871.668	8.44
871.969	8.55
872.27	8.46
872.571	8.5
872.872	8.92
873.173	8.78
873.473	9.19
873.774	9.26
874.075	9.26
874.376	9.44
874.676	9.42
874.977	9.5
875.277	9.52
875.578	9.39
875.878	9.08
876.179	8.99
876.479	8.8
876.78	8.76
877.08	8.84
877.38	8.74
877.68	8.91
877.981	8.81
878.281	8.93
878.581	8.93
