Data from UWBM91361_Reflection_00015.txt Node
Date: Sun May 02 12:22:55 EDT 2021
User: vgr7
Spectrometer: USB2G7710
Scans to average: 10
Trigger mode: 4
Integration Time (sec): 1.000000E-1
Electric dark correction enabled: true
Boxcar width: 10
XAxis mode: Wavelengths
Number of Pixels in Spectrum: 2048
>>>>>Begin Spectral Data<<<<<
177.721	-290.41
178.105	152.94
178.488	2.87
178.871	8.7
179.254	-55.17
179.636	-161.04
180.019	49.81
180.402	41.67
180.785	16.3
181.168	-69.15
181.55	-45.87
181.933	-135.54
182.316	-54.44
182.698	-90.43
183.081	-122.35
183.463	-142.61
183.846	-53.56
184.228	-61
184.611	5.54
184.993	25.54
185.376	24.57
185.758	9.1
186.14	15.22
186.522	24.55
186.904	18.23
187.287	19.59
187.669	18.26
188.051	13.82
188.433	18.69
188.815	19.95
189.197	21.75
189.579	22.44
189.961	24.76
190.342	19.22
190.724	20.34
191.106	16.47
191.488	20.93
191.869	22.58
192.251	22.62
192.633	18.06
193.014	12.06
193.396	14.02
193.777	13.24
194.159	10.31
194.54	7.46
194.922	9.9
195.303	6.09
195.684	8.19
196.065	5.67
196.447	0.15
196.828	-1.41
197.209	-6.77
197.59	-7.1
197.971	-7.02
198.352	-2.12
198.733	1.6
199.114	4.52
199.495	2.97
199.876	4.9
200.257	4.82
200.638	3.05
201.018	2.56
201.399	0.36
201.78	2.12
202.16	5.09
202.541	5.2
202.922	0.57
203.302	3.04
203.683	4.71
204.063	5.5
204.444	10.2
204.824	14.33
205.204	15.19
205.585	17.69
205.965	17.05
206.345	14.61
206.725	8.91
207.106	6.2
207.486	7.47
207.866	6.33
208.246	6.13
208.626	12.55
209.006	14.62
209.386	14.19
209.766	14.87
210.145	12.72
210.525	14.66
210.905	18.83
211.285	18.83
211.664	20.79
212.044	19.97
212.424	20.19
212.803	17.88
213.183	22.2
213.562	17.15
213.942	15.63
214.321	11.98
214.701	8
215.08	12.04
215.459	7.73
215.838	4.32
216.218	3.93
216.597	5.36
216.976	2.5
217.355	2.58
217.734	2.24
218.113	0.8
218.492	-0.55
218.871	-0.21
219.25	2.9
219.629	3.26
220.008	6.37
220.387	4.96
220.766	2.14
221.144	0.75
221.523	5.95
221.902	8.23
222.28	11.69
222.659	15.32
223.037	13.66
223.416	17.4
223.794	19.04
224.173	18.48
224.551	15.28
224.929	13.97
225.308	15.98
225.686	15.6
226.064	15.41
226.442	14.84
226.821	14.43
227.199	11.26
227.577	8.5
227.955	5.95
228.333	6.16
228.711	7.17
229.089	7.88
229.467	6.65
229.845	6.47
230.222	6.7
230.6	6.57
230.978	6.61
231.356	6.15
231.733	5.68
232.111	6.77
232.488	6.01
232.866	6.32
233.243	5.45
233.621	5.98
233.998	5.87
234.376	5.83
234.753	5.94
235.13	6.48
235.508	7.62
235.885	8.2
236.262	8.18
236.639	8.41
237.016	8.45
237.393	8.22
237.77	7.96
238.147	7.82
238.524	7.93
238.901	8.24
239.278	8.04
239.655	8.07
240.032	7.67
240.409	7.73
240.785	7.5
241.162	7.59
241.539	7.56
241.915	7.63
242.292	7.68
242.668	7.54
243.045	7.5
243.421	7.27
243.798	7.21
244.174	7.09
244.551	7.01
244.927	6.95
245.303	6.93
245.679	7.03
246.056	6.92
246.432	6.91
246.808	6.79
247.184	6.72
247.56	6.68
247.936	6.75
248.312	6.72
248.688	6.84
249.064	6.81
249.44	6.77
249.815	6.8
250.191	6.79
250.567	6.82
250.943	6.81
251.318	6.89
251.694	6.86
252.069	6.85
252.445	6.86
252.82	6.83
253.196	6.94
253.571	6.85
253.947	6.95
254.322	6.93
254.697	7.05
255.073	7.14
255.448	7.18
255.823	7.1
256.198	7
256.573	6.88
256.948	6.81
257.323	6.8
257.698	6.7
258.073	6.71
258.448	6.72
258.823	6.72
259.198	6.63
259.573	6.63
259.948	6.65
260.322	6.6
260.697	6.59
261.072	6.57
261.446	6.54
261.821	6.53
262.195	6.51
262.57	6.42
262.944	6.4
263.319	6.35
263.693	6.35
264.067	6.39
264.442	6.41
264.816	6.41
265.19	6.37
265.564	6.4
265.938	6.3
266.313	6.21
266.687	6.17
267.061	6.21
267.435	6.19
267.809	6.19
268.183	6.2
268.556	6.2
268.93	6.17
269.304	6.17
269.678	6.13
270.051	6.09
270.425	6.1
270.799	6.12
271.172	6.16
271.546	6.14
271.919	6.15
272.293	6.1
272.666	6.05
273.04	6.03
273.413	5.95
273.787	5.94
274.16	5.97
274.533	5.98
274.906	5.97
275.279	5.99
275.653	5.99
276.026	5.94
276.399	5.88
276.772	5.89
277.145	5.93
277.518	5.92
277.891	6.01
278.263	6.04
278.636	6.04
279.009	6.04
279.382	6.01
279.755	5.96
280.127	5.98
280.5	6.05
280.872	6.01
281.245	6.11
281.617	6.17
281.99	6.17
282.362	6.17
282.735	6.14
283.107	6.13
283.479	6.19
283.852	6.23
284.224	6.29
284.596	6.27
284.968	6.29
285.34	6.3
285.713	6.33
286.085	6.31
286.457	6.36
286.829	6.37
287.201	6.42
287.572	6.5
287.944	6.57
288.316	6.62
288.688	6.72
289.06	6.75
289.431	6.8
289.803	6.84
290.175	6.94
290.546	7.04
290.918	7.15
291.289	7.16
291.661	7.27
292.032	7.35
292.403	7.5
292.775	7.58
293.146	7.71
293.517	7.81
293.889	7.94
294.26	8.04
294.631	8.15
295.002	8.25
295.373	8.34
295.744	8.46
296.115	8.55
296.486	8.63
296.857	8.74
297.228	8.86
297.599	8.97
297.97	9.02
298.34	9.09
298.711	9.16
299.082	9.26
299.452	9.33
299.823	9.44
300.194	9.54
300.564	9.65
300.935	9.76
301.305	9.84
301.676	9.93
302.046	10
302.416	10.13
302.787	10.27
303.157	10.42
303.527	10.55
303.897	10.65
304.267	10.79
304.637	10.92
305.008	11.06
305.378	11.2
305.748	11.34
306.117	11.5
306.487	11.63
306.857	11.81
307.227	12.02
307.597	12.12
307.967	12.28
308.336	12.42
308.706	12.57
309.076	12.74
309.445	12.88
309.815	13.04
310.184	13.14
310.554	13.28
310.923	13.36
311.293	13.47
311.662	13.63
312.031	13.76
312.401	13.91
312.77	14.02
313.139	14.18
313.508	14.3
313.877	14.44
314.246	14.55
314.616	14.67
314.985	14.75
315.353	14.9
315.722	15.03
316.091	15.18
316.46	15.29
316.829	15.46
317.198	15.63
317.567	15.75
317.935	15.88
318.304	16.04
318.672	16.2
319.041	16.31
319.41	16.43
319.778	16.55
320.147	16.64
320.515	16.74
320.883	16.83
321.252	16.98
321.62	17.09
321.988	17.27
322.357	17.44
322.725	17.58
323.093	17.76
323.461	17.88
323.829	17.96
324.197	18.05
324.565	18.1
324.933	18.14
325.301	18.29
325.669	18.43
326.037	18.5
326.405	18.61
326.772	18.76
327.14	18.84
327.508	18.93
327.875	19.06
328.243	19.16
328.61	19.26
328.978	19.4
329.346	19.48
329.713	19.52
330.08	19.59
330.448	19.66
330.815	19.69
331.182	19.79
331.55	19.92
331.917	20.07
332.284	20.17
332.651	20.3
333.018	20.35
333.385	20.39
333.752	20.48
334.119	20.58
334.486	20.61
334.853	20.69
335.22	20.76
335.587	20.79
335.954	20.93
336.32	21
336.687	21.04
337.054	21.12
337.42	21.26
337.787	21.37
338.153	21.48
338.52	21.6
338.886	21.67
339.253	21.75
339.619	21.82
339.986	21.91
340.352	21.99
340.718	22.08
341.084	22.16
341.451	22.19
341.817	22.26
342.183	22.37
342.549	22.46
342.915	22.54
343.281	22.64
343.647	22.7
344.013	22.78
344.379	22.83
344.745	22.9
345.11	22.93
345.476	22.96
345.842	23.01
346.208	23.06
346.573	23.12
346.939	23.16
347.304	23.18
347.67	23.22
348.035	23.28
348.401	23.31
348.766	23.34
349.132	23.42
349.497	23.45
349.862	23.47
350.228	23.48
350.593	23.49
350.958	23.48
351.323	23.49
351.688	23.5
352.053	23.51
352.418	23.54
352.783	23.56
353.148	23.57
353.513	23.59
353.878	23.59
354.243	23.57
354.608	23.59
354.972	23.62
355.337	23.59
355.702	23.55
356.066	23.55
356.431	23.56
356.795	23.51
357.16	23.46
357.524	23.43
357.889	23.41
358.253	23.4
358.618	23.38
358.982	23.36
359.346	23.32
359.71	23.31
360.075	23.25
360.439	23.22
360.803	23.17
361.167	23.11
361.531	23.06
361.895	23.03
362.259	22.96
362.623	22.9
362.987	22.88
363.351	22.82
363.714	22.79
364.078	22.73
364.442	22.69
364.806	22.64
365.169	22.62
365.533	22.55
365.896	22.51
366.26	22.44
366.623	22.36
366.987	22.31
367.35	22.21
367.714	22.16
368.077	22.08
368.44	22
368.803	21.92
369.167	21.86
369.53	21.8
369.893	21.71
370.256	21.61
370.619	21.53
370.982	21.45
371.345	21.33
371.708	21.24
372.071	21.16
372.434	21.06
372.797	20.94
373.159	20.85
373.522	20.75
373.885	20.66
374.247	20.53
374.61	20.42
374.973	20.34
375.335	20.22
375.698	20.1
376.06	20
376.423	19.9
376.785	19.78
377.147	19.66
377.51	19.56
377.872	19.44
378.234	19.33
378.596	19.24
378.958	19.15
379.321	19.06
379.683	18.95
380.045	18.84
380.407	18.76
380.769	18.63
381.13	18.54
381.492	18.45
381.854	18.35
382.216	18.26
382.578	18.15
382.939	18.07
383.301	17.97
383.663	17.88
384.024	17.79
384.386	17.7
384.747	17.62
385.109	17.54
385.47	17.47
385.832	17.39
386.193	17.28
386.554	17.19
386.916	17.1
387.277	17.01
387.638	16.94
387.999	16.81
388.36	16.77
388.721	16.67
389.082	16.58
389.443	16.49
389.804	16.4
390.165	16.32
390.526	16.23
390.887	16.14
391.248	16.06
391.609	15.99
391.969	15.91
392.33	15.83
392.691	15.74
393.051	15.65
393.412	15.54
393.772	15.45
394.133	15.37
394.493	15.27
394.854	15.18
395.214	15.09
395.574	15.01
395.935	14.89
396.295	14.78
396.655	14.68
397.015	14.58
397.376	14.46
397.736	14.35
398.096	14.23
398.456	14.13
398.816	14.04
399.176	13.92
399.535	13.8
399.895	13.7
400.255	13.59
400.615	13.51
400.975	13.42
401.334	13.34
401.694	13.25
402.054	13.17
402.413	13.09
402.773	13.01
403.132	12.94
403.492	12.88
403.851	12.82
404.211	12.76
404.57	12.7
404.929	12.65
405.288	12.58
405.648	12.53
406.007	12.49
406.366	12.44
406.725	12.4
407.084	12.35
407.443	12.3
407.802	12.27
408.161	12.22
408.52	12.18
408.879	12.13
409.238	12.08
409.596	12.04
409.955	11.99
410.314	11.95
410.673	11.89
411.031	11.85
411.39	11.82
411.748	11.78
412.107	11.74
412.465	11.7
412.824	11.66
413.182	11.63
413.54	11.57
413.899	11.52
414.257	11.46
414.615	11.42
414.974	11.37
415.332	11.32
415.69	11.28
416.048	11.23
416.406	11.18
416.764	11.14
417.122	11.1
417.48	11.07
417.838	11.03
418.195	10.99
418.553	10.94
418.911	10.9
419.269	10.86
419.626	10.83
419.984	10.79
420.342	10.75
420.699	10.71
421.057	10.67
421.414	10.64
421.772	10.6
422.129	10.57
422.486	10.53
422.844	10.49
423.201	10.44
423.558	10.4
423.915	10.37
424.273	10.32
424.63	10.27
424.987	10.23
425.344	10.19
425.701	10.14
426.058	10.1
426.415	10.05
426.772	10
427.128	9.94
427.485	9.89
427.842	9.85
428.199	9.8
428.555	9.75
428.912	9.7
429.269	9.66
429.625	9.61
429.982	9.56
430.338	9.53
430.695	9.51
431.051	9.48
431.407	9.45
431.764	9.43
432.12	9.41
432.476	9.39
432.832	9.37
433.189	9.36
433.545	9.35
433.901	9.35
434.257	9.34
434.613	9.34
434.969	9.33
435.325	9.33
435.681	9.33
436.036	9.33
436.392	9.34
436.748	9.34
437.104	9.34
437.459	9.35
437.815	9.35
438.171	9.36
438.526	9.37
438.882	9.37
439.237	9.38
439.593	9.39
439.948	9.4
440.304	9.4
440.659	9.4
441.014	9.39
441.369	9.38
441.725	9.37
442.08	9.37
442.435	9.36
442.79	9.35
443.145	9.34
443.5	9.33
443.855	9.31
444.21	9.29
444.565	9.28
444.92	9.25
445.275	9.23
445.629	9.2
445.984	9.18
446.339	9.15
446.693	9.12
447.048	9.09
447.403	9.06
447.757	9.05
448.112	9.01
448.466	8.99
448.82	8.96
449.175	8.93
449.529	8.89
449.883	8.85
450.238	8.81
450.592	8.76
450.946	8.72
451.3	8.68
451.654	8.64
452.008	8.6
452.362	8.57
452.716	8.54
453.07	8.5
453.424	8.47
453.778	8.44
454.132	8.41
454.486	8.4
454.839	8.38
455.193	8.36
455.547	8.35
455.9	8.35
456.254	8.34
456.607	8.34
456.961	8.35
457.314	8.35
457.668	8.36
458.021	8.37
458.375	8.38
458.728	8.39
459.081	8.4
459.434	8.41
459.787	8.43
460.141	8.44
460.494	8.45
460.847	8.46
461.2	8.47
461.553	8.49
461.906	8.5
462.259	8.52
462.611	8.54
462.964	8.55
463.317	8.58
463.67	8.6
464.022	8.62
464.375	8.64
464.728	8.68
465.08	8.7
465.433	8.73
465.785	8.76
466.138	8.79
466.49	8.82
466.843	8.85
467.195	8.88
467.547	8.91
467.899	8.95
468.252	8.98
468.604	9.02
468.956	9.06
469.308	9.09
469.66	9.12
470.012	9.15
470.364	9.18
470.716	9.21
471.068	9.25
471.42	9.28
471.772	9.31
472.123	9.34
472.475	9.37
472.827	9.4
473.178	9.43
473.53	9.45
473.882	9.46
474.233	9.47
474.585	9.5
474.936	9.51
475.288	9.52
475.639	9.53
475.99	9.53
476.342	9.54
476.693	9.54
477.044	9.53
477.395	9.54
477.746	9.54
478.097	9.54
478.448	9.58
478.8	9.73
479.15	9.95
479.501	10.23
479.852	10.54
480.203	10.89
480.554	11.23
480.905	11.59
481.255	11.94
481.606	12.29
481.957	12.64
482.307	12.97
482.658	13.27
483.009	13.52
483.359	13.73
483.709	13.92
484.06	14.11
484.41	14.28
484.761	14.43
485.111	14.59
485.461	14.73
485.811	14.86
486.162	14.91
486.512	14.88
486.862	14.8
487.212	14.67
487.562	14.49
487.912	14.29
488.262	14.07
488.612	13.83
488.961	13.57
489.311	13.28
489.661	12.99
490.011	12.7
490.36	12.4
490.71	12.09
491.06	11.79
491.409	11.48
491.759	11.25
492.108	11.05
492.458	10.88
492.807	10.75
493.157	10.61
493.506	10.48
493.855	10.37
494.204	10.26
494.554	10.15
494.903	10.07
495.252	9.99
495.601	9.93
495.95	9.87
496.299	9.83
496.648	9.81
496.997	9.8
497.346	9.84
497.695	9.92
498.043	10.07
498.392	10.24
498.741	10.44
499.09	10.59
499.438	10.71
499.787	10.82
500.135	10.91
500.484	11.03
500.832	11.14
501.181	11.25
501.529	11.37
501.878	11.49
502.226	11.63
502.574	11.76
502.923	11.89
503.271	12.04
503.619	12.18
503.967	12.33
504.315	12.5
504.663	12.65
505.011	12.81
505.359	12.97
505.707	13.12
506.055	13.28
506.403	13.45
506.751	13.62
507.098	13.78
507.446	13.94
507.794	14.11
508.141	14.27
508.489	14.43
508.837	14.59
509.184	14.75
509.531	14.91
509.879	15.08
510.226	15.23
510.574	15.38
510.921	15.54
511.268	15.69
511.616	15.84
511.963	16
512.31	16.16
512.657	16.33
513.004	16.5
513.351	16.69
513.698	16.86
514.045	17.05
514.392	17.23
514.739	17.42
515.086	17.6
515.432	17.78
515.779	17.96
516.126	18.13
516.473	18.31
516.819	18.46
517.166	18.63
517.512	18.79
517.859	18.93
518.205	19.07
518.552	19.21
518.898	19.35
519.245	19.47
519.591	19.6
519.937	19.74
520.283	19.88
520.629	20.02
520.976	20.18
521.322	20.34
521.668	20.51
522.014	20.67
522.36	20.86
522.706	21.06
523.052	21.34
523.398	21.76
523.743	22.32
524.089	22.97
524.435	23.64
524.781	24.35
525.126	25.08
525.472	25.79
525.817	26.49
526.163	27.14
526.509	27.76
526.854	28.29
527.199	28.73
527.545	29.06
527.89	29.34
528.235	29.63
528.581	29.89
528.926	30.15
529.271	30.41
529.616	30.65
529.961	30.88
530.306	31.07
530.651	31.15
530.996	31.1
531.341	30.97
531.686	30.75
532.031	30.44
532.376	30.05
532.721	29.59
533.065	29.13
533.41	28.76
533.755	28.4
534.099	28.13
534.444	28.01
534.788	27.97
535.133	27.99
535.477	28.01
535.822	28.08
536.166	28.18
536.51	28.32
536.855	28.5
537.199	28.72
537.543	28.98
537.887	29.29
538.231	29.64
538.576	30.01
538.92	30.43
539.264	30.88
539.608	31.35
539.951	31.82
540.295	32.26
540.639	32.55
540.983	32.81
541.327	33.02
541.671	33.19
542.014	33.43
542.358	33.68
542.701	33.91
543.045	34.13
543.389	34.34
543.732	34.53
544.075	34.74
544.419	34.91
544.762	35.07
545.105	35.19
545.449	35.27
545.792	35.34
546.135	35.4
546.478	35.47
546.821	35.61
547.165	35.81
547.508	36.07
547.851	36.42
548.194	36.84
548.536	37.26
548.879	37.62
549.222	37.88
549.565	38.12
549.908	38.37
550.25	38.63
550.593	38.88
550.936	39.16
551.278	39.41
551.621	39.68
551.963	39.96
552.306	40.24
552.648	40.52
552.991	40.76
553.333	41.03
553.675	41.31
554.017	41.57
554.36	41.85
554.702	42.12
555.044	42.36
555.386	42.64
555.728	42.92
556.07	43.18
556.412	43.45
556.754	43.73
557.096	43.98
557.438	44.26
557.78	44.55
558.121	44.81
558.463	45.08
558.805	45.37
559.147	45.65
559.488	45.91
559.83	46.16
560.171	46.44
560.513	46.71
560.854	46.98
561.196	47.26
561.537	47.54
561.878	47.82
562.22	48.12
562.561	48.36
562.902	48.62
563.243	48.9
563.584	49.15
563.925	49.41
564.266	49.67
564.607	49.92
564.948	50.15
565.289	50.38
565.63	50.62
565.971	50.83
566.312	51.05
566.653	51.29
566.993	51.51
567.334	51.76
567.675	51.97
568.015	52.2
568.356	52.41
568.696	52.61
569.037	52.8
569.377	53.01
569.718	53.21
570.058	53.41
570.398	53.63
570.739	53.81
571.079	54
571.419	54.19
571.759	54.33
572.099	54.48
572.439	54.64
572.779	54.77
573.119	54.93
573.459	55.06
573.799	55.17
574.139	55.29
574.479	55.37
574.819	55.48
575.158	55.55
575.498	55.64
575.838	55.73
576.177	55.8
576.517	55.87
576.856	55.94
577.196	56.01
577.535	56.06
577.875	56.13
578.214	56.16
578.553	56.22
578.893	56.28
579.232	56.34
579.571	56.39
579.91	56.44
580.25	56.49
580.589	56.55
580.928	56.61
581.267	56.7
581.606	56.76
581.945	56.84
582.283	56.94
582.622	57.05
582.961	57.15
583.3	57.26
583.639	57.35
583.977	57.46
584.316	57.56
584.654	57.64
584.993	57.75
585.332	57.88
585.67	57.98
586.008	58.11
586.347	58.27
586.685	58.43
587.024	58.55
587.362	58.67
587.7	58.79
588.038	58.92
588.376	59.03
588.715	59.14
589.053	59.25
589.391	59.34
589.729	59.44
590.067	59.51
590.404	59.6
590.742	59.69
591.08	59.77
591.418	59.87
591.756	59.98
592.093	60.08
592.431	60.18
592.769	60.26
593.106	60.32
593.444	60.38
593.781	60.43
594.119	60.53
594.456	60.59
594.793	60.68
595.131	60.74
595.468	60.79
595.805	60.84
596.143	60.86
596.48	60.91
596.817	60.91
597.154	60.97
597.491	61
597.828	61.04
598.165	61.07
598.502	61.09
598.839	61.12
599.176	61.13
599.512	61.17
599.849	61.22
600.186	61.27
600.523	61.35
600.859	61.43
601.196	61.47
601.532	61.54
601.869	61.59
602.205	61.63
602.542	61.69
602.878	61.78
603.215	61.83
603.551	61.89
603.887	61.98
604.223	62.04
604.56	62.09
604.896	62.11
605.232	62.16
605.568	62.21
605.904	62.22
606.24	62.27
606.576	62.29
606.912	62.31
607.248	62.33
607.583	62.33
607.919	62.32
608.255	62.32
608.591	62.33
608.926	62.34
609.262	62.33
609.597	62.32
609.933	62.31
610.268	62.33
610.604	62.31
610.939	62.28
611.275	62.27
611.61	62.26
611.945	62.29
612.281	62.3
612.616	62.29
612.951	62.31
613.286	62.3
613.621	62.3
613.956	62.29
614.291	62.29
614.626	62.29
614.961	62.3
615.296	62.32
615.631	62.3
615.966	62.28
616.3	62.3
616.635	62.34
616.97	62.33
617.304	62.36
617.639	62.39
617.973	62.41
618.308	62.41
618.642	62.43
618.977	62.44
619.311	62.42
619.646	62.44
619.98	62.48
620.314	62.52
620.648	62.55
620.983	62.58
621.317	62.63
621.651	62.65
621.985	62.66
622.319	62.69
622.653	62.75
622.987	62.82
623.321	62.91
623.655	62.92
623.988	62.99
624.322	63.05
624.656	63.09
624.99	63.17
625.323	63.19
625.657	63.22
625.99	63.3
626.324	63.38
626.657	63.43
626.991	63.45
627.324	63.51
627.658	63.51
627.991	63.54
628.324	63.54
628.657	63.56
628.991	63.6
629.324	63.61
629.657	63.62
629.99	63.61
630.323	63.6
630.656	63.61
630.989	63.6
631.322	63.61
631.655	63.61
631.987	63.57
632.32	63.62
632.653	63.62
632.986	63.59
633.318	63.54
633.651	63.53
633.984	63.51
634.316	63.48
634.649	63.46
634.981	63.47
635.313	63.47
635.646	63.47
635.978	63.44
636.31	63.4
636.643	63.39
636.975	63.35
637.307	63.3
637.639	63.31
637.971	63.28
638.303	63.23
638.635	63.22
638.967	63.23
639.299	63.18
639.631	63.17
639.963	63.19
640.295	63.21
640.626	63.21
640.958	63.26
641.29	63.26
641.621	63.33
641.953	63.32
642.285	63.35
642.616	63.34
642.948	63.35
643.279	63.41
643.61	63.41
643.942	63.47
644.273	63.53
644.604	63.56
644.936	63.65
645.267	63.71
645.598	63.74
645.929	63.77
646.26	63.86
646.591	63.9
646.922	63.91
647.253	63.93
647.584	63.97
647.915	63.99
648.245	64.04
648.576	64.06
648.907	64.09
649.238	64.14
649.568	64.15
649.899	64.22
650.229	64.25
650.56	64.3
650.89	64.3
651.221	64.31
651.551	64.34
651.882	64.34
652.212	64.33
652.542	64.33
652.872	64.36
653.203	64.39
653.533	64.4
653.863	64.46
654.193	64.5
654.523	64.51
654.853	64.56
655.183	64.59
655.513	64.59
655.843	64.66
656.172	64.7
656.502	64.75
656.832	64.74
657.162	64.77
657.491	64.83
657.821	64.89
658.15	64.91
658.48	64.91
658.809	64.91
659.139	64.96
659.468	64.98
659.798	64.99
660.127	64.97
660.456	64.99
660.785	64.98
661.115	65
661.444	65
661.773	64.95
662.102	64.92
662.431	64.89
662.76	64.86
663.089	64.83
663.418	64.86
663.747	64.9
664.076	64.89
664.404	64.83
664.733	64.81
665.062	64.79
665.39	64.78
665.719	64.82
666.048	64.77
666.376	64.8
666.705	64.79
667.033	64.81
667.362	64.85
667.69	64.84
668.018	64.77
668.347	64.8
668.675	64.85
669.003	64.88
669.331	64.97
669.659	64.99
669.987	64.98
670.315	64.96
670.643	64.94
670.971	64.97
671.299	64.94
671.627	64.94
671.955	64.94
672.283	64.96
672.61	64.96
672.938	65.03
673.266	65.05
673.593	65.07
673.921	65.08
674.249	65.09
674.576	65.11
674.904	65.16
675.231	65.17
675.558	65.18
675.886	65.21
676.213	65.22
676.54	65.27
676.867	65.34
677.195	65.4
677.522	65.47
677.849	65.48
678.176	65.52
678.503	65.58
678.83	65.57
679.157	65.62
679.484	65.63
679.81	65.64
680.137	65.68
680.464	65.7
680.791	65.73
681.117	65.74
681.444	65.77
681.771	65.8
682.097	65.84
682.424	65.87
682.75	65.87
683.077	65.91
683.403	65.9
683.729	65.9
684.056	65.93
684.382	65.92
684.708	65.96
685.034	66.04
685.36	66.06
685.686	66.19
686.012	66.2
686.339	66.25
686.664	66.26
686.99	66.25
687.316	66.27
687.642	66.29
687.968	66.31
688.294	66.33
688.619	66.36
688.945	66.4
689.271	66.42
689.596	66.42
689.922	66.42
690.247	66.44
690.573	66.44
690.898	66.45
691.224	66.45
691.549	66.48
691.874	66.47
692.2	66.48
692.525	66.45
692.85	66.45
693.175	66.43
693.5	66.43
693.825	66.44
694.15	66.43
694.475	66.43
694.8	66.38
695.125	66.4
695.45	66.4
695.775	66.38
696.099	66.32
696.424	66.39
696.749	66.41
697.073	66.46
697.398	66.52
697.723	66.51
698.047	66.52
698.372	66.55
698.696	66.54
699.02	66.53
699.345	66.52
699.669	66.52
699.993	66.51
700.318	66.51
700.642	66.53
700.966	66.56
701.29	66.55
701.614	66.62
701.938	66.59
702.262	66.57
702.586	66.53
702.91	66.55
703.234	66.49
703.557	66.46
703.881	66.41
704.205	66.36
704.529	66.36
704.852	66.31
705.176	66.26
705.499	66.27
705.823	66.27
706.146	66.27
706.47	66.27
706.793	66.28
707.117	66.25
707.44	66.24
707.763	66.19
708.086	66.23
708.409	66.2
708.733	66.26
709.056	66.32
709.379	66.38
709.702	66.45
710.025	66.47
710.348	66.49
710.671	66.49
710.993	66.46
711.316	66.44
711.639	66.46
711.962	66.47
712.284	66.47
712.607	66.5
712.93	66.52
713.252	66.58
713.575	66.62
713.897	66.72
714.22	66.76
714.542	66.85
714.864	66.87
715.187	66.94
715.509	66.97
715.831	67.04
716.153	67.07
716.475	67.09
716.798	67.1
717.12	67.15
717.442	67.17
717.764	67.23
718.085	67.28
718.407	67.31
718.729	67.31
719.051	67.3
719.373	67.32
719.695	67.27
720.016	67.21
720.338	67.18
720.659	67.15
720.981	67.13
721.302	67
721.624	67.04
721.945	66.98
722.267	66.94
722.588	66.86
722.909	66.86
723.231	66.82
723.552	66.86
723.873	66.81
724.194	66.84
724.515	66.89
724.836	66.85
725.157	66.87
725.478	66.89
725.799	66.94
726.12	66.98
726.441	67.03
726.762	67.08
727.083	67.15
727.403	67.17
727.724	67.15
728.045	67.29
728.365	67.27
728.686	67.26
729.006	67.25
729.327	67.24
729.647	67.26
729.967	67.3
730.288	67.28
730.608	67.3
730.928	67.26
731.249	67.2
731.569	67.19
731.889	67.16
732.209	67.16
732.529	67.13
732.849	67.08
733.169	67.07
733.489	67.01
733.809	66.97
734.129	66.99
734.448	66.96
734.768	66.9
735.088	66.87
735.408	66.87
735.727	66.87
736.047	66.81
736.366	66.75
736.686	66.65
737.005	66.63
737.325	66.59
737.644	66.51
737.963	66.46
738.283	66.48
738.602	66.49
738.921	66.47
739.24	66.48
739.56	66.45
739.879	66.5
740.198	66.46
740.517	66.45
740.836	66.35
741.155	66.34
741.473	66.31
741.792	66.27
742.111	66.22
742.43	66.13
742.748	66.08
743.067	66.05
743.386	66.04
743.704	66.03
744.023	66.1
744.341	66.12
744.66	66.13
744.978	66.12
745.297	66.1
745.615	66.11
745.933	66.07
746.252	66.01
746.57	65.91
746.888	65.93
747.206	65.9
747.524	65.92
747.842	65.99
748.16	66.05
748.478	66.07
748.796	66.09
749.114	66.15
749.432	66.22
749.749	66.23
750.067	66.26
750.385	66.29
750.703	66.26
751.02	66.22
751.338	66.25
751.655	66.22
751.973	66.16
752.29	66.16
752.608	66.17
752.925	66.23
753.242	66.28
753.56	66.3
753.877	66.36
754.194	66.41
754.511	66.34
754.828	66.29
755.145	66.36
755.462	66.44
755.779	66.49
756.096	66.62
756.413	66.67
756.73	66.73
757.047	66.82
757.364	66.95
757.68	67.12
757.997	67.21
758.314	67.29
758.63	67.49
758.947	67.69
759.264	67.81
759.58	68
759.896	68.1
760.213	68.28
760.529	68.38
760.846	68.41
761.162	68.48
761.478	68.65
761.794	68.73
762.11	68.79
762.426	68.85
762.743	68.93
763.059	69.03
763.375	69.06
763.69	69.07
764.006	69
764.322	68.98
764.638	68.98
764.954	69.03
765.27	68.95
765.585	68.78
765.901	68.74
766.216	68.63
766.532	68.54
766.848	68.4
767.163	68.27
767.478	68.2
767.794	68.12
768.109	67.93
768.424	67.71
768.74	67.63
769.055	67.48
769.37	67.22
769.685	67.01
770	66.92
770.315	66.72
770.63	66.62
770.945	66.54
771.26	66.51
771.575	66.37
771.89	66.38
772.205	66.35
772.52	66.18
772.834	66.19
773.149	66.16
773.464	66.18
773.778	66.18
774.093	66.27
774.407	66.32
774.722	66.37
775.036	66.32
775.351	66.35
775.665	66.42
775.979	66.45
776.293	66.48
776.608	66.41
776.922	66.57
777.236	66.55
777.55	66.51
777.864	66.52
778.178	66.54
778.492	66.48
778.806	66.56
779.12	66.65
779.434	66.57
779.747	66.55
780.061	66.56
780.375	66.59
780.689	66.44
781.002	66.49
781.316	66.54
781.629	66.61
781.943	66.49
782.256	66.48
782.57	66.5
782.883	66.51
783.196	66.61
783.51	66.5
783.823	66.56
784.136	66.53
784.449	66.53
784.762	66.55
785.075	66.63
785.388	66.65
785.701	66.64
786.014	66.72
786.327	66.86
786.64	66.94
786.953	67.06
787.266	67.29
787.578	67.29
787.891	67.32
788.204	67.51
788.516	67.55
788.829	67.56
789.141	67.55
789.454	67.56
789.766	67.45
790.079	67.67
790.391	67.72
790.703	67.77
791.016	67.81
791.328	67.86
791.64	67.81
791.952	67.74
792.264	67.79
792.576	67.85
792.888	67.93
793.2	68.03
793.512	67.98
793.824	67.8
794.136	67.79
794.448	67.92
794.76	67.94
795.071	68
795.383	68.03
795.695	68.07
796.006	68.14
796.318	68.28
796.629	68.15
796.941	68.18
797.252	68.38
797.564	68.42
797.875	68.48
798.186	68.51
798.497	68.68
798.809	68.76
799.12	68.81
799.431	68.7
799.742	68.59
800.053	68.67
800.364	68.83
800.675	69.01
800.986	68.91
801.297	68.69
801.608	68.63
801.918	68.75
802.229	68.77
802.54	68.87
802.851	68.82
803.161	68.94
803.472	68.92
803.782	68.8
804.093	68.72
804.403	68.5
804.714	68.62
805.024	68.52
805.334	68.52
805.645	68.37
805.955	68.35
806.265	68.38
806.575	68.31
806.885	68.23
807.195	67.95
807.505	67.96
807.815	68.18
808.125	68.11
808.435	67.99
808.745	68.1
809.055	68.07
809.365	68.1
809.674	67.92
809.984	68.14
810.294	68.31
810.603	68.45
810.913	68.69
811.222	68.64
811.532	68.73
811.841	68.75
812.151	68.89
812.46	69.06
812.769	69.09
813.079	69.28
813.388	69.37
813.697	69.51
814.006	69.6
814.315	69.66
814.624	69.87
814.933	69.96
815.242	69.95
815.551	70.01
815.86	70.08
816.169	70.44
816.478	70.33
816.786	70.25
817.095	70.16
817.404	69.97
817.712	69.87
818.021	69.85
818.33	69.81
818.638	69.95
818.947	70.09
819.255	70.47
819.563	70.54
819.872	70.58
820.18	70.7
820.488	70.79
820.796	70.86
821.105	70.94
821.413	71.04
821.721	71.12
822.029	71.13
822.337	71.17
822.645	71.16
822.953	71.15
823.26	71.15
823.568	71.15
823.876	71.18
824.184	71.24
824.491	71.23
824.799	71.2
825.107	71.17
825.414	71.14
825.722	71.08
826.029	71.03
826.337	71.05
826.644	71.06
826.951	71.04
827.259	70.98
827.566	70.91
827.873	70.85
828.18	70.73
828.488	70.62
828.795	70.56
829.102	70.48
829.409	70.48
829.716	70.42
830.023	70.48
830.329	70.51
830.636	70.37
830.943	70.52
831.25	70.57
831.557	70.62
831.863	70.62
832.17	70.48
832.476	70.46
832.783	70.45
833.089	70.37
833.396	70.39
833.702	70.38
834.009	70.36
834.315	70.34
834.621	70.36
834.928	70.57
835.234	70.58
835.54	70.56
835.846	70.48
836.152	70.58
836.458	70.45
836.764	70.44
837.07	70.55
837.376	70.4
837.682	70.33
837.988	70.33
838.293	70.4
838.599	70.56
838.905	70.6
839.211	70.48
839.516	70.45
839.822	70.41
840.127	70.3
840.433	70.52
840.738	70.46
841.044	70.6
841.349	70.34
841.654	70.35
841.959	70.41
842.265	70.48
842.57	70.34
842.875	70.37
843.18	70.28
843.485	70.13
843.79	69.85
844.095	70
844.4	69.74
844.705	69.43
845.01	69.29
845.315	69.12
845.619	69.53
845.924	69.47
846.229	69.14
846.533	69.25
846.838	69.21
847.142	69.13
847.447	68.83
847.751	68.76
848.056	68.75
848.36	68.6
848.664	68.43
848.969	68.67
849.273	68.63
849.577	68.75
849.881	68.64
850.185	68.99
850.489	68.97
850.794	69.21
851.097	69.73
851.401	69.63
851.705	69.81
852.009	69.3
852.313	69.13
852.617	69.2
852.92	69.18
853.224	68.88
853.528	69.16
853.831	69.34
854.135	69.6
854.438	69.66
854.742	69.7
855.045	69.56
855.349	69
855.652	68.74
855.955	68.56
856.259	69.11
856.562	69.09
856.865	69.15
857.168	69.11
857.471	68.47
857.774	68.2
858.077	68.52
858.38	68.91
858.683	69.1
858.986	69.26
859.289	69.62
859.592	69.37
859.894	69.18
860.197	69.23
860.5	69.16
860.802	68.99
861.105	69.37
861.407	69.66
861.71	69.94
862.012	70.66
862.315	70.87
862.617	70.7
862.919	70.86
863.222	71.01
863.524	70.73
863.826	70.75
864.128	71.14
864.43	70.77
864.732	70.52
865.034	70.71
865.336	70.68
865.638	70.84
865.94	70.7
866.242	70.48
866.544	71
866.846	70.64
867.147	70.48
867.449	70.13
867.751	69.99
868.052	69.91
868.354	69.51
868.655	69.63
868.957	69.94
869.258	70.14
869.56	70.07
869.861	70.51
870.162	70.89
870.463	70.91
870.765	71.21
871.066	71.18
871.367	71.1
871.668	70.96
871.969	71.21
872.27	71.63
872.571	71.81
872.872	71.35
873.173	72.13
873.473	72.3
873.774	72.44
874.075	72.8
874.376	72.92
874.676	73.38
874.977	72.88
875.277	73
875.578	72.49
875.878	72.6
876.179	72.54
876.479	72.75
876.78	72.67
877.08	72.6
877.38	72.65
877.68	72.58
877.981	73.12
878.281	72.41
878.581	72.57
