Data from UWBM41002_Reflection_00001.txt Node
Date: Sun May 02 14:13:15 EDT 2021
User: vgr7
Spectrometer: USB2G7710
Scans to average: 10
Trigger mode: 4
Integration Time (sec): 1.000000E-1
Electric dark correction enabled: true
Boxcar width: 20
XAxis mode: Wavelengths
Number of Pixels in Spectrum: 2048
>>>>>Begin Spectral Data<<<<<
177.721	116.07
178.105	70.88
178.488	92.89
178.871	89.22
179.254	48.79
179.636	22.21
180.019	23.65
180.402	11.28
180.785	12.51
181.168	17.42
181.55	11.89
181.933	15.42
182.316	17.58
182.698	21
183.081	18.13
183.463	17.16
183.846	12.98
184.228	14.72
184.611	12.33
184.993	14.63
185.376	14.85
185.758	14.83
186.14	14.1
186.522	12.93
186.904	11.54
187.287	11.06
187.669	12.6
188.051	13.46
188.433	13.81
188.815	10
189.197	11.42
189.579	12.09
189.961	10.37
190.342	9.32
190.724	10.33
191.106	8.88
191.488	8.72
191.869	5.59
192.251	3.9
192.633	4.42
193.014	3.05
193.396	-0.31
193.777	0.26
194.159	0.33
194.54	-0.29
194.922	-1.29
195.303	0.33
195.684	0.95
196.065	2.11
196.447	3.35
196.828	0.86
197.209	0.87
197.59	-2.13
197.971	-4.47
198.352	-4
198.733	-2.22
199.114	-2.51
199.495	-1
199.876	-2.16
200.257	-1.28
200.638	-3.51
201.018	-2.07
201.399	-0.13
201.78	0.02
202.16	-1.3
202.541	-1.63
202.922	-3.16
203.302	-1.73
203.683	-2.85
204.063	-2.79
204.444	-2.73
204.824	-3.66
205.204	-4.68
205.585	-2.54
205.965	0.01
206.345	-0.51
206.725	0.34
207.106	-0.43
207.486	-0.11
207.866	0.33
208.246	-0.79
208.626	-1.23
209.006	1.18
209.386	1.25
209.766	0.75
210.145	-0.53
210.525	0.73
210.905	0.59
211.285	-2.19
211.664	-3.53
212.044	-4.48
212.424	-3.47
212.803	-3.25
213.183	-2.98
213.562	-1.38
213.942	-2.96
214.321	-4.35
214.701	-5.36
215.08	-5.52
215.459	-4.88
215.838	-5.73
216.218	-6.09
216.597	-8.22
216.976	-8.33
217.355	-8.78
217.734	-9.29
218.113	-9.65
218.492	-10.76
218.871	-11.93
219.25	-10.71
219.629	-10.73
220.008	-9.96
220.387	-10.46
220.766	-9.12
221.144	-9.04
221.523	-7.89
221.902	-7.23
222.28	-7.14
222.659	-6.31
223.037	-5.99
223.416	-4.65
223.794	-3.58
224.173	-2.77
224.551	-3.3
224.929	-1.66
225.308	-1.59
225.686	-1.16
226.064	-0.79
226.442	-0.29
226.821	1.25
227.199	1.94
227.577	2.11
227.955	2.33
228.333	2.2
228.711	2.4
229.089	2.09
229.467	2.26
229.845	2.55
230.222	2.87
230.6	2.92
230.978	2.87
231.356	3.35
231.733	3.52
232.111	3.54
232.488	3.62
232.866	3.76
233.243	3.84
233.621	3.93
233.998	4.25
234.376	4.36
234.753	4.12
235.13	4.27
235.508	4.42
235.885	4.47
236.262	4.38
236.639	4.53
237.016	4.34
237.393	4.36
237.77	4.41
238.147	4.4
238.524	4.53
238.901	4.43
239.278	4.46
239.655	4.52
240.032	4.52
240.409	4.44
240.785	4.52
241.162	4.56
241.539	4.55
241.915	4.55
242.292	4.53
242.668	4.53
243.045	4.52
243.421	4.52
243.798	4.58
244.174	4.61
244.551	4.62
244.927	4.62
245.303	4.62
245.679	4.67
246.056	4.62
246.432	4.63
246.808	4.57
247.184	4.59
247.56	4.61
247.936	4.58
248.312	4.58
248.688	4.61
249.064	4.62
249.44	4.61
249.815	4.57
250.191	4.55
250.567	4.54
250.943	4.51
251.318	4.5
251.694	4.56
252.069	4.51
252.445	4.5
252.82	4.49
253.196	4.47
253.571	4.46
253.947	4.44
254.322	4.44
254.697	4.43
255.073	4.4
255.448	4.41
255.823	4.38
256.198	4.36
256.573	4.34
256.948	4.34
257.323	4.3
257.698	4.25
258.073	4.24
258.448	4.2
258.823	4.18
259.198	4.15
259.573	4.13
259.948	4.13
260.322	4.13
260.697	4.1
261.072	4.06
261.446	4.07
261.821	4.05
262.195	4.05
262.57	4.03
262.944	4.03
263.319	4.04
263.693	4.03
264.067	4.04
264.442	4.02
264.816	4.01
265.19	4.02
265.564	4.05
265.938	4.03
266.313	4.04
266.687	4.04
267.061	4.01
267.435	4.01
267.809	4.01
268.183	4.01
268.556	4
268.93	4
269.304	3.99
269.678	3.99
270.051	3.97
270.425	3.96
270.799	3.93
271.172	3.95
271.546	3.95
271.919	3.95
272.293	3.95
272.666	3.96
273.04	3.99
273.413	4.02
273.787	4.05
274.16	4.05
274.533	4.06
274.906	4.06
275.279	4.06
275.653	4.06
276.026	4.07
276.399	4.08
276.772	4.08
277.145	4.09
277.518	4.1
277.891	4.11
278.263	4.1
278.636	4.12
279.009	4.11
279.382	4.1
279.755	4.11
280.127	4.13
280.5	4.14
280.872	4.15
281.245	4.15
281.617	4.14
281.99	4.15
282.362	4.16
282.735	4.14
283.107	4.15
283.479	4.14
283.852	4.16
284.224	4.16
284.596	4.16
284.968	4.15
285.34	4.17
285.713	4.18
286.085	4.19
286.457	4.2
286.829	4.19
287.201	4.2
287.572	4.2
287.944	4.21
288.316	4.2
288.688	4.19
289.06	4.2
289.431	4.2
289.803	4.23
290.175	4.24
290.546	4.25
290.918	4.27
291.289	4.27
291.661	4.27
292.032	4.27
292.403	4.27
292.775	4.29
293.146	4.3
293.517	4.32
293.889	4.32
294.26	4.34
294.631	4.35
295.002	4.39
295.373	4.38
295.744	4.38
296.115	4.38
296.486	4.41
296.857	4.43
297.228	4.42
297.599	4.44
297.97	4.46
298.34	4.45
298.711	4.47
299.082	4.46
299.452	4.48
299.823	4.49
300.194	4.5
300.564	4.5
300.935	4.51
301.305	4.51
301.676	4.52
302.046	4.54
302.416	4.54
302.787	4.53
303.157	4.52
303.527	4.52
303.897	4.53
304.267	4.53
304.637	4.54
305.008	4.53
305.378	4.53
305.748	4.53
306.117	4.53
306.487	4.55
306.857	4.56
307.227	4.57
307.597	4.58
307.967	4.57
308.336	4.58
308.706	4.58
309.076	4.56
309.445	4.56
309.815	4.55
310.184	4.54
310.554	4.53
310.923	4.54
311.293	4.54
311.662	4.52
312.031	4.5
312.401	4.51
312.77	4.5
313.139	4.5
313.508	4.52
313.877	4.52
314.246	4.52
314.616	4.51
314.985	4.51
315.353	4.53
315.722	4.51
316.091	4.52
316.46	4.5
316.829	4.5
317.198	4.48
317.567	4.49
317.935	4.49
318.304	4.49
318.672	4.48
319.041	4.49
319.41	4.5
319.778	4.51
320.147	4.5
320.515	4.5
320.883	4.48
321.252	4.48
321.62	4.46
321.988	4.46
322.357	4.46
322.725	4.46
323.093	4.46
323.461	4.44
323.829	4.45
324.197	4.45
324.565	4.43
324.933	4.42
325.301	4.41
325.669	4.42
326.037	4.41
326.405	4.4
326.772	4.41
327.14	4.42
327.508	4.39
327.875	4.39
328.243	4.39
328.61	4.38
328.978	4.38
329.346	4.37
329.713	4.38
330.08	4.38
330.448	4.36
330.815	4.35
331.182	4.33
331.55	4.34
331.917	4.32
332.284	4.32
332.651	4.31
333.018	4.32
333.385	4.32
333.752	4.32
334.119	4.31
334.486	4.28
334.853	4.27
335.22	4.27
335.587	4.27
335.954	4.28
336.32	4.27
336.687	4.28
337.054	4.26
337.42	4.25
337.787	4.25
338.153	4.24
338.52	4.24
338.886	4.23
339.253	4.23
339.619	4.24
339.986	4.25
340.352	4.26
340.718	4.25
341.084	4.25
341.451	4.25
341.817	4.25
342.183	4.25
342.549	4.26
342.915	4.26
343.281	4.25
343.647	4.25
344.013	4.24
344.379	4.24
344.745	4.24
345.11	4.24
345.476	4.25
345.842	4.26
346.208	4.26
346.573	4.26
346.939	4.27
347.304	4.28
347.67	4.27
348.035	4.27
348.401	4.28
348.766	4.29
349.132	4.28
349.497	4.29
349.862	4.29
350.228	4.29
350.593	4.29
350.958	4.29
351.323	4.3
351.688	4.31
352.053	4.32
352.418	4.32
352.783	4.32
353.148	4.32
353.513	4.33
353.878	4.34
354.243	4.34
354.608	4.34
354.972	4.34
355.337	4.34
355.702	4.35
356.066	4.35
356.431	4.34
356.795	4.34
357.16	4.34
357.524	4.34
357.889	4.35
358.253	4.35
358.618	4.35
358.982	4.35
359.346	4.35
359.71	4.35
360.075	4.35
360.439	4.35
360.803	4.35
361.167	4.35
361.531	4.35
361.895	4.35
362.259	4.34
362.623	4.35
362.987	4.34
363.351	4.34
363.714	4.34
364.078	4.35
364.442	4.34
364.806	4.34
365.169	4.34
365.533	4.35
365.896	4.35
366.26	4.35
366.623	4.34
366.987	4.34
367.35	4.34
367.714	4.34
368.077	4.35
368.44	4.35
368.803	4.35
369.167	4.35
369.53	4.35
369.893	4.34
370.256	4.34
370.619	4.34
370.982	4.35
371.345	4.34
371.708	4.35
372.071	4.36
372.434	4.36
372.797	4.36
373.159	4.36
373.522	4.37
373.885	4.37
374.247	4.37
374.61	4.37
374.973	4.37
375.335	4.37
375.698	4.37
376.06	4.37
376.423	4.37
376.785	4.36
377.147	4.37
377.51	4.37
377.872	4.37
378.234	4.37
378.596	4.37
378.958	4.37
379.321	4.37
379.683	4.37
380.045	4.36
380.407	4.36
380.769	4.36
381.13	4.36
381.492	4.36
381.854	4.36
382.216	4.36
382.578	4.35
382.939	4.35
383.301	4.35
383.663	4.35
384.024	4.35
384.386	4.35
384.747	4.36
385.109	4.36
385.47	4.36
385.832	4.35
386.193	4.36
386.554	4.35
386.916	4.35
387.277	4.35
387.638	4.34
387.999	4.35
388.36	4.35
388.721	4.35
389.082	4.35
389.443	4.35
389.804	4.35
390.165	4.35
390.526	4.35
390.887	4.35
391.248	4.36
391.609	4.36
391.969	4.36
392.33	4.36
392.691	4.36
393.051	4.36
393.412	4.37
393.772	4.37
394.133	4.37
394.493	4.37
394.854	4.37
395.214	4.37
395.574	4.37
395.935	4.38
396.295	4.37
396.655	4.37
397.015	4.38
397.376	4.38
397.736	4.38
398.096	4.39
398.456	4.39
398.816	4.39
399.176	4.39
399.535	4.39
399.895	4.39
400.255	4.39
400.615	4.4
400.975	4.4
401.334	4.4
401.694	4.41
402.054	4.42
402.413	4.42
402.773	4.42
403.132	4.42
403.492	4.43
403.851	4.43
404.211	4.44
404.57	4.44
404.929	4.44
405.288	4.44
405.648	4.45
406.007	4.45
406.366	4.45
406.725	4.45
407.084	4.45
407.443	4.46
407.802	4.46
408.161	4.46
408.52	4.46
408.879	4.46
409.238	4.46
409.596	4.47
409.955	4.48
410.314	4.48
410.673	4.48
411.031	4.49
411.39	4.5
411.748	4.51
412.107	4.52
412.465	4.53
412.824	4.56
413.182	4.58
413.54	4.62
413.899	4.65
414.257	4.69
414.615	4.74
414.974	4.77
415.332	4.82
415.69	4.87
416.048	4.9
416.406	4.95
416.764	4.99
417.122	5.03
417.48	5.06
417.838	5.1
418.195	5.13
418.553	5.15
418.911	5.17
419.269	5.19
419.626	5.18
419.984	5.18
420.342	5.17
420.699	5.15
421.057	5.13
421.414	5.11
421.772	5.1
422.129	5.09
422.486	5.08
422.844	5.09
423.201	5.09
423.558	5.08
423.915	5.09
424.273	5.09
424.63	5.08
424.987	5.08
425.344	5.09
425.701	5.08
426.058	5.09
426.415	5.09
426.772	5.09
427.128	5.08
427.485	5.07
427.842	5.06
428.199	5.04
428.555	5.02
428.912	5
429.269	4.96
429.625	4.94
429.982	4.91
430.338	4.87
430.695	4.84
431.051	4.8
431.407	4.78
431.764	4.76
432.12	4.74
432.476	4.72
432.832	4.71
433.189	4.71
433.545	4.72
433.901	4.73
434.257	4.76
434.613	4.79
434.969	4.82
435.325	4.85
435.681	4.9
436.036	4.92
436.392	4.95
436.748	4.97
437.104	4.99
437.459	5.01
437.815	5.03
438.171	5.06
438.526	5.09
438.882	5.12
439.237	5.17
439.593	5.21
439.948	5.25
440.304	5.29
440.659	5.32
441.014	5.35
441.369	5.38
441.725	5.41
442.08	5.43
442.435	5.44
442.79	5.45
443.145	5.46
443.5	5.46
443.855	5.47
444.21	5.47
444.565	5.47
444.92	5.46
445.275	5.45
445.629	5.44
445.984	5.43
446.339	5.41
446.693	5.4
447.048	5.38
447.403	5.37
447.757	5.34
448.112	5.32
448.466	5.29
448.82	5.27
449.175	5.24
449.529	5.22
449.883	5.19
450.238	5.16
450.592	5.16
450.946	5.14
451.3	5.14
451.654	5.15
452.008	5.16
452.362	5.17
452.716	5.16
453.07	5.17
453.424	5.16
453.778	5.16
454.132	5.15
454.486	5.14
454.839	5.11
455.193	5.09
455.547	5.08
455.9	5.04
456.254	5.03
456.607	4.99
456.961	4.96
457.314	4.94
457.668	4.93
458.021	4.92
458.375	4.91
458.728	4.91
459.081	4.91
459.434	4.92
459.787	4.93
460.141	4.94
460.494	4.95
460.847	4.96
461.2	4.97
461.553	4.97
461.906	4.98
462.259	4.98
462.611	4.98
462.964	4.99
463.317	4.99
463.67	5
464.022	5.01
464.375	5.01
464.728	5.02
465.08	5.02
465.433	5.02
465.785	5.01
466.138	5
466.49	4.97
466.843	4.95
467.195	4.92
467.547	4.89
467.899	4.86
468.252	4.83
468.604	4.79
468.956	4.77
469.308	4.74
469.66	4.74
470.012	4.73
470.364	4.73
470.716	4.74
471.068	4.75
471.42	4.77
471.772	4.8
472.123	4.81
472.475	4.82
472.827	4.83
473.178	4.84
473.53	4.85
473.882	4.87
474.233	4.9
474.585	4.94
474.936	5.02
475.288	5.12
475.639	5.26
475.99	5.42
476.342	5.59
476.693	5.78
477.044	5.97
477.395	6.18
477.746	6.38
478.097	6.59
478.448	6.8
478.8	7.01
479.15	7.2
479.501	7.38
479.852	7.54
480.203	7.7
480.554	7.84
480.905	7.99
481.255	8.12
481.606	8.25
481.957	8.37
482.307	8.49
482.658	8.6
483.009	8.71
483.359	8.81
483.709	8.91
484.06	9.01
484.41	9.1
484.761	9.19
485.111	9.28
485.461	9.35
485.811	9.43
486.162	9.5
486.512	9.57
486.862	9.61
487.212	9.65
487.562	9.67
487.912	9.69
488.262	9.69
488.612	9.69
488.961	9.66
489.311	9.61
489.661	9.53
490.011	9.42
490.36	9.29
490.71	9.15
491.06	8.99
491.409	8.82
491.759	8.64
492.108	8.46
492.458	8.26
492.807	8.06
493.157	7.86
493.506	7.68
493.855	7.5
494.204	7.33
494.554	7.16
494.903	7.01
495.252	6.87
495.601	6.73
495.95	6.59
496.299	6.46
496.648	6.34
496.997	6.23
497.346	6.12
497.695	6.01
498.043	5.91
498.392	5.81
498.741	5.71
499.09	5.61
499.438	5.52
499.787	5.44
500.135	5.36
500.484	5.28
500.832	5.22
501.181	5.17
501.529	5.14
501.878	5.12
502.226	5.1
502.574	5.1
502.923	5.09
503.271	5.09
503.619	5.09
503.967	5.09
504.315	5.08
504.663	5.07
505.011	5.07
505.359	5.06
505.707	5.05
506.055	5.05
506.403	5.04
506.751	5.04
507.098	5.05
507.446	5.05
507.794	5.05
508.141	5.07
508.489	5.08
508.837	5.09
509.184	5.1
509.531	5.12
509.879	5.13
510.226	5.15
510.574	5.16
510.921	5.18
511.268	5.2
511.616	5.22
511.963	5.25
512.31	5.27
512.657	5.3
513.004	5.32
513.351	5.34
513.698	5.35
514.045	5.36
514.392	5.37
514.739	5.37
515.086	5.36
515.432	5.36
515.779	5.35
516.126	5.35
516.473	5.35
516.819	5.35
517.166	5.35
517.512	5.36
517.859	5.38
518.205	5.4
518.552	5.42
518.898	5.46
519.245	5.51
519.591	5.57
519.937	5.66
520.283	5.76
520.629	5.88
520.976	6.01
521.322	6.15
521.668	6.29
522.014	6.44
522.36	6.58
522.706	6.72
523.052	6.86
523.398	6.98
523.743	7.09
524.089	7.19
524.435	7.27
524.781	7.34
525.126	7.42
525.472	7.48
525.817	7.54
526.163	7.59
526.509	7.65
526.854	7.7
527.199	7.75
527.545	7.8
527.89	7.86
528.235	7.92
528.581	7.97
528.926	8.02
529.271	8.06
529.616	8.1
529.961	8.14
530.306	8.18
530.651	8.21
530.996	8.23
531.341	8.25
531.686	8.25
532.031	8.26
532.376	8.26
532.721	8.27
533.065	8.27
533.41	8.28
533.755	8.27
534.099	8.26
534.444	8.23
534.788	8.19
535.133	8.14
535.477	8.09
535.822	8.03
536.166	7.96
536.51	7.88
536.855	7.79
537.199	7.7
537.543	7.61
537.887	7.53
538.231	7.45
538.576	7.39
538.92	7.32
539.264	7.25
539.608	7.18
539.951	7.11
540.295	7.04
540.639	6.96
540.983	6.89
541.327	6.81
541.671	6.73
542.014	6.66
542.358	6.59
542.701	6.54
543.045	6.5
543.389	6.47
543.732	6.44
544.075	6.42
544.419	6.4
544.762	6.38
545.105	6.37
545.449	6.36
545.792	6.34
546.135	6.33
546.478	6.31
546.821	6.28
547.165	6.24
547.508	6.2
547.851	6.14
548.194	6.08
548.536	6.01
548.879	5.93
549.222	5.84
549.565	5.76
549.908	5.67
550.25	5.59
550.593	5.52
550.936	5.46
551.278	5.42
551.621	5.38
551.963	5.34
552.306	5.32
552.648	5.3
552.991	5.28
553.333	5.26
553.675	5.25
554.017	5.25
554.36	5.25
554.702	5.25
555.044	5.26
555.386	5.27
555.728	5.3
556.07	5.31
556.412	5.33
556.754	5.34
557.096	5.33
557.438	5.33
557.78	5.34
558.121	5.34
558.463	5.34
558.805	5.34
559.147	5.34
559.488	5.34
559.83	5.35
560.171	5.35
560.513	5.35
560.854	5.35
561.196	5.36
561.537	5.35
561.878	5.35
562.22	5.35
562.561	5.36
562.902	5.36
563.243	5.36
563.584	5.36
563.925	5.36
564.266	5.36
564.607	5.36
564.948	5.37
565.289	5.37
565.63	5.37
565.971	5.38
566.312	5.38
566.653	5.38
566.993	5.39
567.334	5.39
567.675	5.39
568.015	5.4
568.356	5.4
568.696	5.41
569.037	5.41
569.377	5.42
569.718	5.42
570.058	5.42
570.398	5.42
570.739	5.42
571.079	5.43
571.419	5.43
571.759	5.43
572.099	5.43
572.439	5.43
572.779	5.43
573.119	5.43
573.459	5.43
573.799	5.43
574.139	5.43
574.479	5.43
574.819	5.44
575.158	5.44
575.498	5.44
575.838	5.44
576.177	5.44
576.517	5.44
576.856	5.44
577.196	5.44
577.535	5.44
577.875	5.44
578.214	5.44
578.553	5.44
578.893	5.44
579.232	5.44
579.571	5.44
579.91	5.44
580.25	5.43
580.589	5.43
580.928	5.43
581.267	5.43
581.606	5.43
581.945	5.43
582.283	5.43
582.622	5.43
582.961	5.42
583.3	5.42
583.639	5.42
583.977	5.42
584.316	5.42
584.654	5.42
584.993	5.43
585.332	5.43
585.67	5.43
586.008	5.43
586.347	5.43
586.685	5.44
587.024	5.44
587.362	5.44
587.7	5.44
588.038	5.45
588.376	5.45
588.715	5.44
589.053	5.44
589.391	5.45
589.729	5.45
590.067	5.45
590.404	5.46
590.742	5.46
591.08	5.46
591.418	5.47
591.756	5.47
592.093	5.48
592.431	5.48
592.769	5.48
593.106	5.48
593.444	5.49
593.781	5.49
594.119	5.49
594.456	5.49
594.793	5.49
595.131	5.49
595.468	5.48
595.805	5.48
596.143	5.48
596.48	5.48
596.817	5.49
597.154	5.49
597.491	5.49
597.828	5.5
598.165	5.5
598.502	5.5
598.839	5.51
599.176	5.51
599.512	5.51
599.849	5.52
600.186	5.52
600.523	5.53
600.859	5.53
601.196	5.53
601.532	5.53
601.869	5.53
602.205	5.54
602.542	5.55
602.878	5.55
603.215	5.55
603.551	5.55
603.887	5.56
604.223	5.56
604.56	5.56
604.896	5.57
605.232	5.57
605.568	5.57
605.904	5.57
606.24	5.57
606.576	5.57
606.912	5.57
607.248	5.57
607.583	5.57
607.919	5.58
608.255	5.58
608.591	5.58
608.926	5.58
609.262	5.59
609.597	5.59
609.933	5.59
610.268	5.59
610.604	5.59
610.939	5.58
611.275	5.59
611.61	5.59
611.945	5.6
612.281	5.6
612.616	5.59
612.951	5.58
613.286	5.58
613.621	5.58
613.956	5.58
614.291	5.58
614.626	5.58
614.961	5.58
615.296	5.58
615.631	5.58
615.966	5.58
616.3	5.57
616.635	5.57
616.97	5.57
617.304	5.57
617.639	5.57
617.973	5.56
618.308	5.56
618.642	5.56
618.977	5.56
619.311	5.57
619.646	5.57
619.98	5.58
620.314	5.58
620.648	5.59
620.983	5.6
621.317	5.6
621.651	5.6
621.985	5.61
622.319	5.62
622.653	5.62
622.987	5.63
623.321	5.63
623.655	5.64
623.988	5.64
624.322	5.65
624.656	5.65
624.99	5.66
625.323	5.66
625.657	5.66
625.99	5.66
626.324	5.67
626.657	5.67
626.991	5.68
627.324	5.68
627.658	5.68
627.991	5.67
628.324	5.68
628.657	5.68
628.991	5.69
629.324	5.69
629.657	5.69
629.99	5.7
630.323	5.7
630.656	5.71
630.989	5.71
631.322	5.71
631.655	5.71
631.987	5.72
632.32	5.72
632.653	5.72
632.986	5.72
633.318	5.73
633.651	5.73
633.984	5.73
634.316	5.73
634.649	5.72
634.981	5.72
635.313	5.73
635.646	5.72
635.978	5.73
636.31	5.73
636.643	5.73
636.975	5.74
637.307	5.74
637.639	5.75
637.971	5.74
638.303	5.74
638.635	5.74
638.967	5.74
639.299	5.74
639.631	5.74
639.963	5.74
640.295	5.75
640.626	5.75
640.958	5.76
641.29	5.77
641.621	5.77
641.953	5.78
642.285	5.78
642.616	5.77
642.948	5.78
643.279	5.79
643.61	5.79
643.942	5.79
644.273	5.8
644.604	5.8
644.936	5.81
645.267	5.81
645.598	5.81
645.929	5.81
646.26	5.81
646.591	5.81
646.922	5.82
647.253	5.82
647.584	5.82
647.915	5.81
648.245	5.82
648.576	5.83
648.907	5.84
649.238	5.84
649.568	5.83
649.899	5.83
650.229	5.83
650.56	5.83
650.89	5.83
651.221	5.83
651.551	5.85
651.882	5.85
652.212	5.85
652.542	5.86
652.872	5.87
653.203	5.87
653.533	5.87
653.863	5.87
654.193	5.88
654.523	5.88
654.853	5.88
655.183	5.88
655.513	5.89
655.843	5.89
656.172	5.9
656.502	5.9
656.832	5.9
657.162	5.89
657.491	5.89
657.821	5.88
658.15	5.89
658.48	5.89
658.809	5.9
659.139	5.9
659.468	5.9
659.798	5.92
660.127	5.92
660.456	5.92
660.785	5.92
661.115	5.93
661.444	5.94
661.773	5.94
662.102	5.94
662.431	5.94
662.76	5.94
663.089	5.94
663.418	5.96
663.747	5.96
664.076	5.97
664.404	5.98
664.733	5.99
665.062	5.99
665.39	6
665.719	6
666.048	6.01
666.376	6.01
666.705	6.02
667.033	6.03
667.362	6.03
667.69	6.02
668.018	6.03
668.347	6.03
668.675	6.04
669.003	6.04
669.331	6.04
669.659	6.06
669.987	6.06
670.315	6.07
670.643	6.09
670.971	6.1
671.299	6.11
671.627	6.11
671.955	6.11
672.283	6.12
672.61	6.12
672.938	6.12
673.266	6.12
673.593	6.12
673.921	6.13
674.249	6.14
674.576	6.14
674.904	6.15
675.231	6.15
675.558	6.15
675.886	6.16
676.213	6.16
676.54	6.17
676.867	6.16
677.195	6.16
677.522	6.17
677.849	6.17
678.176	6.16
678.503	6.17
678.83	6.17
679.157	6.18
679.484	6.17
679.81	6.17
680.137	6.17
680.464	6.18
680.791	6.19
681.117	6.19
681.444	6.2
681.771	6.2
682.097	6.21
682.424	6.22
682.75	6.23
683.077	6.23
683.403	6.23
683.729	6.24
684.056	6.23
684.382	6.24
684.708	6.25
685.034	6.25
685.36	6.26
685.686	6.25
686.012	6.25
686.339	6.25
686.664	6.25
686.99	6.26
687.316	6.27
687.642	6.27
687.968	6.29
688.294	6.29
688.619	6.29
688.945	6.3
689.271	6.3
689.596	6.31
689.922	6.32
690.247	6.33
690.573	6.33
690.898	6.33
691.224	6.34
691.549	6.34
691.874	6.34
692.2	6.35
692.525	6.35
692.85	6.37
693.175	6.38
693.5	6.4
693.825	6.41
694.15	6.41
694.475	6.42
694.8	6.41
695.125	6.41
695.45	6.41
695.775	6.42
696.099	6.42
696.424	6.43
696.749	6.43
697.073	6.43
697.398	6.44
697.723	6.44
698.047	6.45
698.372	6.45
698.696	6.46
699.02	6.47
699.345	6.48
699.669	6.49
699.993	6.5
700.318	6.51
700.642	6.51
700.966	6.51
701.29	6.5
701.614	6.51
701.938	6.52
702.262	6.53
702.586	6.53
702.91	6.54
703.234	6.55
703.557	6.55
703.881	6.56
704.205	6.55
704.529	6.56
704.852	6.56
705.176	6.56
705.499	6.55
705.823	6.56
706.146	6.55
706.47	6.55
706.793	6.56
707.117	6.56
707.44	6.58
707.763	6.58
708.086	6.6
708.409	6.6
708.733	6.6
709.056	6.6
709.379	6.61
709.702	6.62
710.025	6.62
710.348	6.63
710.671	6.63
710.993	6.64
711.316	6.64
711.639	6.63
711.962	6.65
712.284	6.66
712.607	6.66
712.93	6.65
713.252	6.65
713.575	6.66
713.897	6.67
714.22	6.67
714.542	6.68
714.864	6.67
715.187	6.68
715.509	6.68
715.831	6.68
716.153	6.68
716.475	6.68
716.798	6.68
717.12	6.67
717.442	6.69
717.764	6.69
718.085	6.7
718.407	6.71
718.729	6.73
719.051	6.73
719.373	6.74
719.695	6.74
720.016	6.74
720.338	6.73
720.659	6.73
720.981	6.74
721.302	6.74
721.624	6.76
721.945	6.75
722.267	6.74
722.588	6.76
722.909	6.76
723.231	6.76
723.552	6.74
723.873	6.76
724.194	6.76
724.515	6.78
724.836	6.79
725.157	6.8
725.478	6.78
725.799	6.8
726.12	6.8
726.441	6.8
726.762	6.8
727.083	6.8
727.403	6.81
727.724	6.82
728.045	6.86
728.365	6.86
728.686	6.88
729.006	6.9
729.327	6.94
729.647	6.93
729.967	6.96
730.288	6.97
730.608	6.96
730.928	6.98
731.249	6.99
731.569	6.98
731.889	6.97
732.209	7
732.529	7.01
732.849	7.02
733.169	7.04
733.489	7.06
733.809	7.06
734.129	7.06
734.448	7.07
734.768	7.09
735.088	7.1
735.408	7.11
735.727	7.11
736.047	7.13
736.366	7.13
736.686	7.15
737.005	7.15
737.325	7.15
737.644	7.12
737.963	7.11
738.283	7.11
738.602	7.13
738.921	7.13
739.24	7.16
739.56	7.17
739.879	7.16
740.198	7.15
740.517	7.18
740.836	7.17
741.155	7.15
741.473	7.14
741.792	7.12
742.111	7.11
742.43	7.09
742.748	7.12
743.067	7.13
743.386	7.15
743.704	7.17
744.023	7.17
744.341	7.16
744.66	7.19
744.978	7.2
745.297	7.2
745.615	7.22
745.933	7.22
746.252	7.22
746.57	7.23
746.888	7.24
747.206	7.24
747.524	7.25
747.842	7.25
748.16	7.28
748.478	7.25
748.796	7.26
749.114	7.28
749.432	7.29
749.749	7.3
750.067	7.31
750.385	7.34
750.703	7.37
751.02	7.37
751.338	7.37
751.655	7.38
751.973	7.4
752.29	7.4
752.608	7.4
752.925	7.42
753.242	7.48
753.56	7.47
753.877	7.51
754.194	7.51
754.511	7.52
754.828	7.51
755.145	7.52
755.462	7.53
755.779	7.55
756.096	7.56
756.413	7.54
756.73	7.56
757.047	7.54
757.364	7.56
757.68	7.58
757.997	7.61
758.314	7.61
758.63	7.62
758.947	7.66
759.264	7.68
759.58	7.68
759.896	7.69
760.213	7.7
760.529	7.71
760.846	7.72
761.162	7.73
761.478	7.76
761.794	7.75
762.11	7.75
762.426	7.77
762.743	7.78
763.059	7.78
763.375	7.78
763.69	7.8
764.006	7.84
764.322	7.85
764.638	7.87
764.954	7.88
765.27	7.87
765.585	7.88
765.901	7.89
766.216	7.87
766.532	7.88
766.848	7.86
767.163	7.88
767.478	7.89
767.794	7.92
768.109	7.94
768.424	7.94
768.74	7.94
769.055	7.93
769.37	7.92
769.685	7.93
770	7.97
770.315	7.99
770.63	8
770.945	7.99
771.26	7.99
771.575	8.01
771.89	8
772.205	8
772.52	8
772.834	8.03
773.149	8.07
773.464	8.06
773.778	8.05
774.093	8.05
774.407	8.08
774.722	8.1
775.036	8.12
775.351	8.12
775.665	8.15
775.979	8.19
776.293	8.18
776.608	8.17
776.922	8.17
777.236	8.17
777.55	8.19
777.864	8.21
778.178	8.24
778.492	8.26
778.806	8.25
779.12	8.25
779.434	8.29
779.747	8.33
780.061	8.36
780.375	8.39
780.689	8.38
781.002	8.37
781.316	8.41
781.629	8.4
781.943	8.45
782.256	8.49
782.57	8.48
782.883	8.48
783.196	8.49
783.51	8.47
783.823	8.48
784.136	8.5
784.449	8.5
784.762	8.52
785.075	8.5
785.388	8.5
785.701	8.45
786.014	8.46
786.327	8.45
786.64	8.45
786.953	8.52
787.266	8.52
787.578	8.54
787.891	8.57
788.204	8.55
788.516	8.55
788.829	8.52
789.141	8.55
789.454	8.53
789.766	8.53
790.079	8.55
790.391	8.54
790.703	8.55
791.016	8.55
791.328	8.53
791.64	8.56
791.952	8.61
792.264	8.54
792.576	8.52
792.888	8.52
793.2	8.54
793.512	8.58
793.824	8.6
794.136	8.56
794.448	8.58
794.76	8.61
795.071	8.61
795.383	8.64
795.695	8.64
796.006	8.64
796.318	8.64
796.629	8.64
796.941	8.65
797.252	8.64
797.564	8.61
797.875	8.63
798.186	8.66
798.497	8.69
798.809	8.67
799.12	8.73
799.431	8.75
799.742	8.73
800.053	8.76
800.364	8.77
800.675	8.75
800.986	8.74
801.297	8.77
801.608	8.83
801.918	8.85
802.229	8.89
802.54	8.88
802.851	8.86
803.161	8.88
803.472	8.89
803.782	8.91
804.093	8.96
804.403	8.99
804.714	9.04
805.024	9.09
805.334	9.09
805.645	9.11
805.955	9.14
806.265	9.14
806.575	9.14
806.885	9.19
807.195	9.2
807.505	9.19
807.815	9.24
808.125	9.22
808.435	9.2
808.745	9.2
809.055	9.26
809.365	9.3
809.674	9.34
809.984	9.39
810.294	9.47
810.603	9.45
810.913	9.47
811.222	9.48
811.532	9.5
811.841	9.52
812.151	9.54
812.46	9.55
812.769	9.5
813.079	9.53
813.388	9.59
813.697	9.62
814.006	9.65
814.315	9.59
814.624	9.57
814.933	9.61
815.242	9.67
815.551	9.65
815.86	9.66
816.169	9.68
816.478	9.68
816.786	9.68
817.095	9.63
817.404	9.61
817.712	9.59
818.021	9.65
818.33	9.65
818.638	9.65
818.947	9.65
819.255	9.67
819.563	9.68
819.872	9.7
820.18	9.72
820.488	9.71
820.796	9.73
821.105	9.77
821.413	9.8
821.721	9.82
822.029	9.83
822.337	9.81
822.645	9.81
822.953	9.82
823.26	9.84
823.568	9.84
823.876	9.85
824.184	9.88
824.491	9.87
824.799	9.89
825.107	9.89
825.414	9.92
825.722	9.92
826.029	9.94
826.337	9.97
826.644	9.97
826.951	9.99
827.259	10
827.566	10
827.873	9.98
828.18	10.01
828.488	10.02
828.795	10.02
829.102	10.02
829.409	10.03
829.716	10.09
830.023	10.1
830.329	10.13
830.636	10.12
830.943	10.14
831.25	10.16
831.557	10.19
831.863	10.21
832.17	10.25
832.476	10.25
832.783	10.23
833.089	10.23
833.396	10.23
833.702	10.24
834.009	10.26
834.315	10.27
834.621	10.27
834.928	10.31
835.234	10.33
835.54	10.31
835.846	10.28
836.152	10.26
836.458	10.28
836.764	10.22
837.07	10.26
837.376	10.25
837.682	10.23
837.988	10.19
838.293	10.18
838.599	10.11
838.905	10.05
839.211	10.03
839.516	9.98
839.822	9.98
840.127	10.01
840.433	10.09
840.738	10.16
841.044	10.13
841.349	10.08
841.654	10.14
841.959	10.19
842.265	10.14
842.57	10.13
842.875	10.12
843.18	10.11
843.485	10.09
843.79	10.15
844.095	10.13
844.4	10.15
844.705	10.14
845.01	10.13
845.315	10.09
845.619	9.99
845.924	10
846.229	10.03
846.533	9.96
846.838	9.91
847.142	9.83
847.447	9.79
847.751	9.81
848.056	9.88
848.36	10.03
848.664	10.07
848.969	10.16
849.273	10.22
849.577	10.19
849.881	10.09
850.185	10.04
850.489	10.07
850.794	10.16
851.097	10.3
851.401	10.43
851.705	10.37
852.009	10.52
852.313	10.59
852.617	10.42
852.92	10.36
853.224	10.14
853.528	10.19
853.831	10.26
854.135	10.3
854.438	10.27
854.742	10.22
855.045	10.2
855.349	10.45
855.652	10.55
855.955	10.67
856.259	10.63
856.562	10.64
856.865	10.74
857.168	10.86
857.471	11.05
857.774	11.29
858.077	11.5
858.38	11.51
858.683	11.5
858.986	11.59
859.289	11.56
859.592	11.67
859.894	11.73
860.197	11.7
860.5	11.77
860.802	11.77
861.105	11.84
861.407	11.57
861.71	11.7
862.012	11.75
862.315	11.89
862.617	12.01
862.919	12.2
863.222	12.04
863.524	11.99
863.826	11.98
864.128	11.97
864.43	11.94
864.732	11.79
865.034	11.85
865.336	11.79
865.638	11.86
865.94	11.89
866.242	11.92
866.544	11.96
866.846	11.99
867.147	12.17
867.449	12.13
867.751	12.07
868.052	12.11
868.354	12
868.655	11.95
868.957	11.89
869.258	11.78
869.56	11.82
869.861	11.84
870.162	11.97
870.463	12.11
870.765	12.11
871.066	12.19
871.367	12.07
871.668	12.12
871.969	12.12
872.27	12.15
872.571	12.24
872.872	12.17
873.173	12.2
873.473	12.18
873.774	12.35
874.075	12.24
874.376	12.23
874.676	12.19
874.977	12.29
875.277	12.14
875.578	12.25
875.878	12.33
876.179	12.3
876.479	12.46
876.78	12.56
877.08	12.74
877.38	12.84
877.68	12.99
877.981	13.07
878.281	13.08
878.581	13.14
