Data from UWBM55942_Reflection_00009.txt Node
Date: Sun May 02 14:11:25 EDT 2021
User: vgr7
Spectrometer: USB2G7710
Scans to average: 10
Trigger mode: 4
Integration Time (sec): 1.000000E-1
Electric dark correction enabled: true
Boxcar width: 20
XAxis mode: Wavelengths
Number of Pixels in Spectrum: 2048
>>>>>Begin Spectral Data<<<<<
177.721	-1055
178.105	-43.63
178.488	-368.07
178.871	-976.47
179.254	252.39
179.636	183.7
180.019	96.67
180.402	71.02
180.785	65.21
181.168	64.08
181.55	52.54
181.933	50.48
182.316	43.55
182.698	39.64
183.081	35.88
183.463	34.45
183.846	33.7
184.228	39.81
184.611	37.41
184.993	34.84
185.376	34.85
185.758	34.06
186.14	39.1
186.522	39.36
186.904	39.13
187.287	35.45
187.669	31.36
188.051	32.36
188.433	29.5
188.815	25.7
189.197	25.97
189.579	26.09
189.961	27.43
190.342	23.47
190.724	24.4
191.106	24.37
191.488	24.55
191.869	22.66
192.251	20.1
192.633	20.02
193.014	20
193.396	17.91
193.777	21.05
194.159	19.63
194.54	18.21
194.922	18.5
195.303	16.32
195.684	16.61
196.065	17.35
196.447	18.13
196.828	17.25
197.209	18.32
197.59	17
197.971	15.71
198.352	16.68
198.733	18.95
199.114	18.42
199.495	19.05
199.876	17.42
200.257	17.68
200.638	16.73
201.018	16.31
201.399	18.02
201.78	16.72
202.16	15.11
202.541	14.94
202.922	14.53
203.302	16.23
203.683	17.12
204.063	18.99
204.444	18.44
204.824	17.46
205.204	17.3
205.585	17.77
205.965	18.8
206.345	18.35
206.725	19.2
207.106	18.17
207.486	19.02
207.866	20.04
208.246	19.6
208.626	19.49
209.006	19.11
209.386	17.31
209.766	17.14
210.145	16.31
210.525	15.59
210.905	16.5
211.285	16.33
211.664	16.39
212.044	14.76
212.424	12.14
212.803	12.49
213.183	11.71
213.562	15.11
213.942	12.55
214.321	11.63
214.701	11.58
215.08	11.57
215.459	11.55
215.838	11.01
216.218	12.3
216.597	11.94
216.976	12.78
217.355	12.52
217.734	13
218.113	12.72
218.492	12.93
218.871	11.52
219.25	10.44
219.629	9.55
220.008	10.18
220.387	9.19
220.766	10.21
221.144	9.8
221.523	10
221.902	9.31
222.28	8.81
222.659	9.37
223.037	8.73
223.416	8.24
223.794	8.3
224.173	7.53
224.551	7.34
224.929	8
225.308	7.43
225.686	7.44
226.064	7.52
226.442	7.78
226.821	8.22
227.199	8.05
227.577	8.22
227.955	9.36
228.333	8.83
228.711	8.34
229.089	7.18
229.467	7.51
229.845	6.91
230.222	7.37
230.6	6.93
230.978	6.81
231.356	6.8
231.733	6.49
232.111	6.39
232.488	5.97
232.866	5.56
233.243	5.63
233.621	5.65
233.998	5.63
234.376	5.67
234.753	5.4
235.13	5.36
235.508	5.41
235.885	5.36
236.262	5.24
236.639	5.22
237.016	5.18
237.393	5.26
237.77	5.21
238.147	5.12
238.524	5.12
238.901	5.05
239.278	5.02
239.655	5.04
240.032	4.98
240.409	4.91
240.785	4.95
241.162	4.94
241.539	4.87
241.915	4.86
242.292	4.82
242.668	4.83
243.045	4.78
243.421	4.71
243.798	4.71
244.174	4.8
244.551	4.81
244.927	4.81
245.303	4.82
245.679	4.76
246.056	4.74
246.432	4.73
246.808	4.7
247.184	4.72
247.56	4.72
247.936	4.72
248.312	4.73
248.688	4.68
249.064	4.67
249.44	4.66
249.815	4.62
250.191	4.6
250.567	4.63
250.943	4.59
251.318	4.56
251.694	4.54
252.069	4.52
252.445	4.51
252.82	4.47
253.196	4.43
253.571	4.39
253.947	4.38
254.322	4.37
254.697	4.34
255.073	4.32
255.448	4.31
255.823	4.28
256.198	4.26
256.573	4.23
256.948	4.25
257.323	4.21
257.698	4.16
258.073	4.12
258.448	4.09
258.823	4.07
259.198	4.06
259.573	4.01
259.948	4.01
260.322	4
260.697	3.98
261.072	3.97
261.446	3.96
261.821	3.94
262.195	3.93
262.57	3.89
262.944	3.88
263.319	3.88
263.693	3.86
264.067	3.85
264.442	3.84
264.816	3.82
265.19	3.83
265.564	3.84
265.938	3.81
266.313	3.81
266.687	3.81
267.061	3.81
267.435	3.82
267.809	3.81
268.183	3.8
268.556	3.8
268.93	3.8
269.304	3.79
269.678	3.79
270.051	3.77
270.425	3.75
270.799	3.73
271.172	3.74
271.546	3.74
271.919	3.73
272.293	3.71
272.666	3.72
273.04	3.74
273.413	3.79
273.787	3.82
274.16	3.82
274.533	3.82
274.906	3.84
275.279	3.84
275.653	3.85
276.026	3.85
276.399	3.86
276.772	3.86
277.145	3.85
277.518	3.86
277.891	3.89
278.263	3.89
278.636	3.89
279.009	3.89
279.382	3.9
279.755	3.91
280.127	3.91
280.5	3.92
280.872	3.94
281.245	3.94
281.617	3.94
281.99	3.95
282.362	3.94
282.735	3.94
283.107	3.93
283.479	3.94
283.852	3.96
284.224	3.96
284.596	3.94
284.968	3.96
285.34	3.98
285.713	3.99
286.085	4.02
286.457	4.02
286.829	4.04
287.201	4.07
287.572	4.08
287.944	4.08
288.316	4.08
288.688	4.07
289.06	4.09
289.431	4.11
289.803	4.13
290.175	4.15
290.546	4.17
290.918	4.21
291.289	4.24
291.661	4.26
292.032	4.28
292.403	4.32
292.775	4.35
293.146	4.37
293.517	4.4
293.889	4.43
294.26	4.46
294.631	4.5
295.002	4.54
295.373	4.59
295.744	4.62
296.115	4.65
296.486	4.7
296.857	4.74
297.228	4.79
297.599	4.85
297.97	4.89
298.34	4.93
298.711	4.98
299.082	5.03
299.452	5.09
299.823	5.15
300.194	5.19
300.564	5.24
300.935	5.3
301.305	5.34
301.676	5.39
302.046	5.45
302.416	5.5
302.787	5.56
303.157	5.63
303.527	5.69
303.897	5.76
304.267	5.85
304.637	5.9
305.008	5.98
305.378	6.05
305.748	6.12
306.117	6.17
306.487	6.25
306.857	6.34
307.227	6.42
307.597	6.5
307.967	6.57
308.336	6.64
308.706	6.69
309.076	6.75
309.445	6.83
309.815	6.89
310.184	6.96
310.554	7.01
310.923	7.08
311.293	7.13
311.662	7.19
312.031	7.26
312.401	7.32
312.77	7.37
313.139	7.44
313.508	7.51
313.877	7.57
314.246	7.63
314.616	7.67
314.985	7.76
315.353	7.83
315.722	7.88
316.091	7.95
316.46	8.02
316.829	8.11
317.198	8.18
317.567	8.24
317.935	8.34
318.304	8.41
318.672	8.49
319.041	8.59
319.41	8.65
319.778	8.74
320.147	8.81
320.515	8.88
320.883	8.95
321.252	9.03
321.62	9.11
321.988	9.16
322.357	9.22
322.725	9.28
323.093	9.35
323.461	9.39
323.829	9.48
324.197	9.55
324.565	9.6
324.933	9.67
325.301	9.7
325.669	9.77
326.037	9.81
326.405	9.87
326.772	9.93
327.14	9.99
327.508	10.03
327.875	10.07
328.243	10.12
328.61	10.16
328.978	10.21
329.346	10.25
329.713	10.32
330.08	10.36
330.448	10.41
330.815	10.45
331.182	10.48
331.55	10.53
331.917	10.56
332.284	10.59
332.651	10.66
333.018	10.7
333.385	10.76
333.752	10.8
334.119	10.84
334.486	10.89
334.853	10.93
335.22	10.98
335.587	11.04
335.954	11.08
336.32	11.13
336.687	11.16
337.054	11.2
337.42	11.24
337.787	11.29
338.153	11.33
338.52	11.38
338.886	11.4
339.253	11.43
339.619	11.48
339.986	11.51
340.352	11.56
340.718	11.6
341.084	11.65
341.451	11.68
341.817	11.7
342.183	11.74
342.549	11.77
342.915	11.81
343.281	11.85
343.647	11.88
344.013	11.91
344.379	11.94
344.745	11.95
345.11	11.97
345.476	12
345.842	12.02
346.208	12.05
346.573	12.08
346.939	12.1
347.304	12.13
347.67	12.14
348.035	12.16
348.401	12.17
348.766	12.18
349.132	12.2
349.497	12.22
349.862	12.23
350.228	12.24
350.593	12.26
350.958	12.26
351.323	12.26
351.688	12.27
352.053	12.26
352.418	12.27
352.783	12.26
353.148	12.24
353.513	12.23
353.878	12.23
354.243	12.23
354.608	12.2
354.972	12.19
355.337	12.16
355.702	12.14
356.066	12.11
356.431	12.09
356.795	12.08
357.16	12.05
357.524	12.03
357.889	12.01
358.253	11.98
358.618	11.96
358.982	11.93
359.346	11.9
359.71	11.88
360.075	11.85
360.439	11.8
360.803	11.78
361.167	11.73
361.531	11.69
361.895	11.66
362.259	11.62
362.623	11.58
362.987	11.54
363.351	11.5
363.714	11.47
364.078	11.42
364.442	11.38
364.806	11.34
365.169	11.29
365.533	11.23
365.896	11.18
366.26	11.14
366.623	11.08
366.987	11.03
367.35	10.97
367.714	10.91
368.077	10.85
368.44	10.79
368.803	10.72
369.167	10.64
369.53	10.57
369.893	10.49
370.256	10.42
370.619	10.35
370.982	10.27
371.345	10.19
371.708	10.11
372.071	10.04
372.434	9.96
372.797	9.88
373.159	9.81
373.522	9.73
373.885	9.66
374.247	9.59
374.61	9.5
374.973	9.42
375.335	9.34
375.698	9.27
376.06	9.2
376.423	9.12
376.785	9.04
377.147	8.97
377.51	8.89
377.872	8.82
378.234	8.74
378.596	8.66
378.958	8.58
379.321	8.5
379.683	8.43
380.045	8.35
380.407	8.28
380.769	8.21
381.13	8.13
381.492	8.06
381.854	8
382.216	7.93
382.578	7.86
382.939	7.8
383.301	7.74
383.663	7.67
384.024	7.6
384.386	7.54
384.747	7.48
385.109	7.43
385.47	7.36
385.832	7.3
386.193	7.24
386.554	7.18
386.916	7.12
387.277	7.06
387.638	7.01
387.999	6.95
388.36	6.9
388.721	6.85
389.082	6.8
389.443	6.75
389.804	6.71
390.165	6.66
390.526	6.61
390.887	6.56
391.248	6.51
391.609	6.47
391.969	6.43
392.33	6.38
392.691	6.33
393.051	6.28
393.412	6.24
393.772	6.19
394.133	6.14
394.493	6.1
394.854	6.05
395.214	6
395.574	5.96
395.935	5.91
396.295	5.86
396.655	5.82
397.015	5.77
397.376	5.73
397.736	5.69
398.096	5.65
398.456	5.6
398.816	5.57
399.176	5.52
399.535	5.48
399.895	5.44
400.255	5.4
400.615	5.37
400.975	5.33
401.334	5.3
401.694	5.26
402.054	5.22
402.413	5.19
402.773	5.16
403.132	5.13
403.492	5.09
403.851	5.06
404.211	5.04
404.57	5.01
404.929	4.98
405.288	4.96
405.648	4.94
406.007	4.92
406.366	4.9
406.725	4.88
407.084	4.86
407.443	4.84
407.802	4.82
408.161	4.8
408.52	4.78
408.879	4.77
409.238	4.75
409.596	4.73
409.955	4.72
410.314	4.7
410.673	4.68
411.031	4.67
411.39	4.66
411.748	4.65
412.107	4.63
412.465	4.62
412.824	4.62
413.182	4.63
413.54	4.63
413.899	4.65
414.257	4.66
414.615	4.69
414.974	4.7
415.332	4.72
415.69	4.75
416.048	4.76
416.406	4.79
416.764	4.8
417.122	4.82
417.48	4.84
417.838	4.85
418.195	4.86
418.553	4.87
418.911	4.87
419.269	4.86
419.626	4.85
419.984	4.83
420.342	4.8
420.699	4.77
421.057	4.74
421.414	4.72
421.772	4.69
422.129	4.67
422.486	4.66
422.844	4.64
423.201	4.63
423.558	4.62
423.915	4.61
424.273	4.6
424.63	4.58
424.987	4.57
425.344	4.56
425.701	4.55
426.058	4.54
426.415	4.53
426.772	4.52
427.128	4.5
427.485	4.48
427.842	4.46
428.199	4.44
428.555	4.41
428.912	4.38
429.269	4.34
429.625	4.31
429.982	4.27
430.338	4.23
430.695	4.2
431.051	4.16
431.407	4.13
431.764	4.11
432.12	4.08
432.476	4.06
432.832	4.05
433.189	4.05
433.545	4.05
433.901	4.06
434.257	4.08
434.613	4.1
434.969	4.12
435.325	4.14
435.681	4.17
436.036	4.19
436.392	4.21
436.748	4.23
437.104	4.23
437.459	4.25
437.815	4.27
438.171	4.29
438.526	4.31
438.882	4.34
439.237	4.37
439.593	4.41
439.948	4.43
440.304	4.46
440.659	4.48
441.014	4.5
441.369	4.53
441.725	4.54
442.08	4.56
442.435	4.56
442.79	4.57
443.145	4.57
443.5	4.56
443.855	4.56
444.21	4.56
444.565	4.55
444.92	4.54
445.275	4.53
445.629	4.52
445.984	4.5
446.339	4.49
446.693	4.47
447.048	4.45
447.403	4.43
447.757	4.4
448.112	4.38
448.466	4.35
448.82	4.32
449.175	4.29
449.529	4.26
449.883	4.24
450.238	4.21
450.592	4.2
450.946	4.19
451.3	4.18
451.654	4.18
452.008	4.18
452.362	4.18
452.716	4.17
453.07	4.16
453.424	4.15
453.778	4.14
454.132	4.13
454.486	4.11
454.839	4.09
455.193	4.07
455.547	4.06
455.9	4.03
456.254	4.01
456.607	3.98
456.961	3.96
457.314	3.94
457.668	3.92
458.021	3.92
458.375	3.92
458.728	3.92
459.081	3.92
459.434	3.93
459.787	3.94
460.141	3.95
460.494	3.96
460.847	3.97
461.2	3.98
461.553	3.99
461.906	4
462.259	4.01
462.611	4.01
462.964	4.02
463.317	4.03
463.67	4.04
464.022	4.06
464.375	4.07
464.728	4.08
465.08	4.09
465.433	4.1
465.785	4.1
466.138	4.09
466.49	4.08
466.843	4.07
467.195	4.06
467.547	4.05
467.899	4.04
468.252	4.02
468.604	4
468.956	3.99
469.308	3.98
469.66	3.99
470.012	3.99
470.364	4
470.716	4.01
471.068	4.03
471.42	4.05
471.772	4.08
472.123	4.1
472.475	4.11
472.827	4.13
473.178	4.14
473.53	4.15
473.882	4.16
474.233	4.18
474.585	4.22
474.936	4.28
475.288	4.37
475.639	4.48
475.99	4.61
476.342	4.75
476.693	4.91
477.044	5.06
477.395	5.23
477.746	5.4
478.097	5.56
478.448	5.73
478.8	5.89
479.15	6.04
479.501	6.19
479.852	6.31
480.203	6.44
480.554	6.55
480.905	6.66
481.255	6.76
481.606	6.86
481.957	6.96
482.307	7.05
482.658	7.13
483.009	7.21
483.359	7.29
483.709	7.37
484.06	7.44
484.41	7.51
484.761	7.59
485.111	7.66
485.461	7.72
485.811	7.78
486.162	7.84
486.512	7.89
486.862	7.93
487.212	7.95
487.562	7.97
487.912	7.99
488.262	7.99
488.612	7.99
488.961	7.97
489.311	7.94
489.661	7.87
490.011	7.79
490.36	7.7
490.71	7.59
491.06	7.47
491.409	7.34
491.759	7.21
492.108	7.07
492.458	6.93
492.807	6.78
493.157	6.63
493.506	6.49
493.855	6.36
494.204	6.24
494.554	6.13
494.903	6.02
495.252	5.93
495.601	5.84
495.95	5.75
496.299	5.67
496.648	5.6
496.997	5.54
497.346	5.48
497.695	5.43
498.043	5.38
498.392	5.33
498.741	5.29
499.09	5.26
499.438	5.23
499.787	5.21
500.135	5.19
500.484	5.18
500.832	5.19
501.181	5.21
501.529	5.25
501.878	5.3
502.226	5.35
502.574	5.42
502.923	5.49
503.271	5.56
503.619	5.64
503.967	5.72
504.315	5.8
504.663	5.88
505.011	5.97
505.359	6.05
505.707	6.14
506.055	6.23
506.403	6.32
506.751	6.42
507.098	6.52
507.446	6.63
507.794	6.73
508.141	6.85
508.489	6.97
508.837	7.09
509.184	7.22
509.531	7.35
509.879	7.48
510.226	7.63
510.574	7.78
510.921	7.94
511.268	8.1
511.616	8.27
511.963	8.44
512.31	8.62
512.657	8.79
513.004	8.96
513.351	9.13
513.698	9.28
514.045	9.43
514.392	9.57
514.739	9.7
515.086	9.82
515.432	9.95
515.779	10.07
516.126	10.19
516.473	10.33
516.819	10.48
517.166	10.64
517.512	10.82
517.859	11.01
518.205	11.21
518.552	11.44
518.898	11.68
519.245	11.96
519.591	12.29
519.937	12.69
520.283	13.15
520.629	13.65
520.976	14.18
521.322	14.73
521.668	15.3
522.014	15.88
522.36	16.46
522.706	17.02
523.052	17.58
523.398	18.11
523.743	18.59
524.089	19.04
524.435	19.45
524.781	19.86
525.126	20.26
525.472	20.65
525.817	21.03
526.163	21.41
526.509	21.77
526.854	22.14
527.199	22.51
527.545	22.88
527.89	23.27
528.235	23.64
528.581	24.01
528.926	24.36
529.271	24.68
529.616	25
529.961	25.31
530.306	25.61
530.651	25.89
530.996	26.15
531.341	26.39
531.686	26.61
532.031	26.82
532.376	27.06
532.721	27.31
533.065	27.6
533.41	27.9
533.755	28.18
534.099	28.43
534.444	28.65
534.788	28.85
535.133	29.03
535.477	29.2
535.822	29.34
536.166	29.46
536.51	29.52
536.855	29.54
537.199	29.53
537.543	29.52
537.887	29.54
538.231	29.59
538.576	29.64
538.92	29.69
539.264	29.72
539.608	29.73
539.951	29.73
540.295	29.73
540.639	29.71
540.983	29.68
541.327	29.63
541.671	29.56
542.014	29.51
542.358	29.48
542.701	29.52
543.045	29.61
543.389	29.73
543.732	29.87
544.075	30.03
544.419	30.2
544.762	30.37
545.105	30.57
545.449	30.77
545.792	30.98
546.135	31.2
546.478	31.38
546.821	31.52
547.165	31.61
547.508	31.65
547.851	31.65
548.194	31.61
548.536	31.54
548.879	31.44
549.222	31.32
549.565	31.2
549.908	31.09
550.25	30.99
550.593	30.95
550.936	30.97
551.278	31.03
551.621	31.13
551.963	31.25
552.306	31.39
552.648	31.55
552.991	31.75
553.333	31.96
553.675	32.21
554.017	32.48
554.36	32.78
554.702	33.1
555.044	33.47
555.386	33.88
555.728	34.33
556.07	34.75
556.412	35.16
556.754	35.49
557.096	35.77
557.438	36.05
557.78	36.34
558.121	36.63
558.463	36.91
558.805	37.2
559.147	37.48
559.488	37.77
559.83	38.05
560.171	38.32
560.513	38.59
560.854	38.87
561.196	39.14
561.537	39.4
561.878	39.65
562.22	39.89
562.561	40.13
562.902	40.37
563.243	40.62
563.584	40.87
563.925	41.1
564.266	41.34
564.607	41.57
564.948	41.8
565.289	42.02
565.63	42.25
565.971	42.46
566.312	42.66
566.653	42.88
566.993	43.09
567.334	43.28
567.675	43.48
568.015	43.67
568.356	43.87
568.696	44.05
569.037	44.23
569.377	44.4
569.718	44.57
570.058	44.72
570.398	44.88
570.739	45.03
571.079	45.19
571.419	45.33
571.759	45.46
572.099	45.6
572.439	45.73
572.779	45.86
573.119	46
573.459	46.12
573.799	46.25
574.139	46.37
574.479	46.5
574.819	46.62
575.158	46.74
575.498	46.86
575.838	46.98
576.177	47.09
576.517	47.21
576.856	47.32
577.196	47.42
577.535	47.53
577.875	47.63
578.214	47.74
578.553	47.85
578.893	47.95
579.232	48.06
579.571	48.16
579.91	48.27
580.25	48.38
580.589	48.48
580.928	48.58
581.267	48.68
581.606	48.78
581.945	48.89
582.283	48.98
582.622	49.06
582.961	49.17
583.3	49.26
583.639	49.35
583.977	49.43
584.316	49.53
584.654	49.62
584.993	49.7
585.332	49.8
585.67	49.89
586.008	49.97
586.347	50.07
586.685	50.16
587.024	50.25
587.362	50.32
587.7	50.41
588.038	50.49
588.376	50.58
588.715	50.67
589.053	50.75
589.391	50.84
589.729	50.93
590.067	51.01
590.404	51.08
590.742	51.17
591.08	51.25
591.418	51.32
591.756	51.39
592.093	51.46
592.431	51.51
592.769	51.58
593.106	51.63
593.444	51.69
593.781	51.74
594.119	51.79
594.456	51.84
594.793	51.89
595.131	51.94
595.468	51.99
595.805	52.03
596.143	52.09
596.48	52.16
596.817	52.22
597.154	52.28
597.491	52.34
597.828	52.41
598.165	52.46
598.502	52.52
598.839	52.58
599.176	52.64
599.512	52.7
599.849	52.75
600.186	52.79
600.523	52.82
600.859	52.86
601.196	52.91
601.532	52.96
601.869	53
602.205	53.03
602.542	53.07
602.878	53.11
603.215	53.14
603.551	53.18
603.887	53.22
604.223	53.26
604.56	53.28
604.896	53.31
605.232	53.34
605.568	53.37
605.904	53.4
606.24	53.43
606.576	53.44
606.912	53.48
607.248	53.5
607.583	53.53
607.919	53.56
608.255	53.58
608.591	53.62
608.926	53.64
609.262	53.67
609.597	53.7
609.933	53.71
610.268	53.73
610.604	53.74
610.939	53.76
611.275	53.78
611.61	53.81
611.945	53.83
612.281	53.84
612.616	53.85
612.951	53.86
613.286	53.87
613.621	53.88
613.956	53.9
614.291	53.92
614.626	53.95
614.961	53.97
615.296	53.99
615.631	54.01
615.966	54.04
616.3	54.05
616.635	54.06
616.97	54.08
617.304	54.1
617.639	54.11
617.973	54.11
618.308	54.13
618.642	54.14
618.977	54.16
619.311	54.18
619.646	54.19
619.98	54.21
620.314	54.24
620.648	54.26
620.983	54.27
621.317	54.28
621.651	54.29
621.985	54.31
622.319	54.33
622.653	54.35
622.987	54.37
623.321	54.39
623.655	54.4
623.988	54.43
624.322	54.43
624.656	54.45
624.99	54.46
625.323	54.46
625.657	54.47
625.99	54.48
626.324	54.48
626.657	54.48
626.991	54.49
627.324	54.51
627.658	54.52
627.991	54.53
628.324	54.53
628.657	54.54
628.991	54.55
629.324	54.56
629.657	54.58
629.99	54.58
630.323	54.58
630.656	54.59
630.989	54.59
631.322	54.62
631.655	54.63
631.987	54.65
632.32	54.68
632.653	54.68
632.986	54.69
633.318	54.7
633.651	54.72
633.984	54.73
634.316	54.74
634.649	54.76
634.981	54.77
635.313	54.78
635.646	54.8
635.978	54.8
636.31	54.82
636.643	54.84
636.975	54.84
637.307	54.86
637.639	54.87
637.971	54.9
638.303	54.92
638.635	54.93
638.967	54.95
639.299	54.96
639.631	54.96
639.963	55
640.295	55.02
640.626	55.04
640.958	55.07
641.29	55.08
641.621	55.09
641.953	55.1
642.285	55.12
642.616	55.13
642.948	55.13
643.279	55.14
643.61	55.16
643.942	55.17
644.273	55.18
644.604	55.18
644.936	55.19
645.267	55.21
645.598	55.19
645.929	55.19
646.26	55.21
646.591	55.21
646.922	55.23
647.253	55.23
647.584	55.25
647.915	55.26
648.245	55.27
648.576	55.28
648.907	55.29
649.238	55.29
649.568	55.3
649.899	55.31
650.229	55.32
650.56	55.32
650.89	55.33
651.221	55.33
651.551	55.32
651.882	55.31
652.212	55.31
652.542	55.3
652.872	55.3
653.203	55.34
653.533	55.34
653.863	55.34
654.193	55.33
654.523	55.32
654.853	55.32
655.183	55.34
655.513	55.35
655.843	55.35
656.172	55.37
656.502	55.39
656.832	55.4
657.162	55.42
657.491	55.45
657.821	55.46
658.15	55.48
658.48	55.5
658.809	55.5
659.139	55.53
659.468	55.54
659.798	55.54
660.127	55.55
660.456	55.57
660.785	55.58
661.115	55.57
661.444	55.57
661.773	55.57
662.102	55.57
662.431	55.58
662.76	55.59
663.089	55.6
663.418	55.61
663.747	55.61
664.076	55.64
664.404	55.64
664.733	55.64
665.062	55.66
665.39	55.69
665.719	55.7
666.048	55.74
666.376	55.75
666.705	55.75
667.033	55.77
667.362	55.77
667.69	55.8
668.018	55.81
668.347	55.84
668.675	55.84
669.003	55.84
669.331	55.87
669.659	55.86
669.987	55.86
670.315	55.86
670.643	55.85
670.971	55.86
671.299	55.86
671.627	55.86
671.955	55.85
672.283	55.85
672.61	55.84
672.938	55.84
673.266	55.86
673.593	55.86
673.921	55.84
674.249	55.84
674.576	55.85
674.904	55.86
675.231	55.88
675.558	55.87
675.886	55.89
676.213	55.89
676.54	55.89
676.867	55.88
677.195	55.88
677.522	55.86
677.849	55.87
678.176	55.9
678.503	55.88
678.83	55.88
679.157	55.87
679.484	55.86
679.81	55.87
680.137	55.87
680.464	55.86
680.791	55.88
681.117	55.88
681.444	55.88
681.771	55.88
682.097	55.88
682.424	55.88
682.75	55.85
683.077	55.84
683.403	55.86
683.729	55.85
684.056	55.86
684.382	55.86
684.708	55.87
685.034	55.89
685.36	55.9
685.686	55.91
686.012	55.91
686.339	55.91
686.664	55.9
686.99	55.93
687.316	55.94
687.642	55.94
687.968	55.96
688.294	55.96
688.619	55.97
688.945	55.98
689.271	55.97
689.596	55.97
689.922	55.97
690.247	55.99
690.573	55.98
690.898	55.96
691.224	55.97
691.549	55.97
691.874	55.96
692.2	55.96
692.525	55.98
692.85	55.99
693.175	55.99
693.5	56.01
693.825	56.01
694.15	56
694.475	56.01
694.8	56
695.125	56.01
695.45	56.03
695.775	56.02
696.099	56.04
696.424	56.06
696.749	56.06
697.073	56.06
697.398	56.06
697.723	56.05
698.047	56.05
698.372	56.04
698.696	56.03
699.02	56.05
699.345	56.07
699.669	56.07
699.993	56.08
700.318	56.06
700.642	56.08
700.966	56.08
701.29	56.09
701.614	56.1
701.938	56.1
702.262	56.11
702.586	56.11
702.91	56.12
703.234	56.14
703.557	56.15
703.881	56.19
704.205	56.22
704.529	56.23
704.852	56.22
705.176	56.27
705.499	56.28
705.823	56.29
706.146	56.3
706.47	56.31
706.793	56.3
707.117	56.31
707.44	56.33
707.763	56.34
708.086	56.36
708.409	56.36
708.733	56.36
709.056	56.37
709.379	56.37
709.702	56.39
710.025	56.4
710.348	56.42
710.671	56.43
710.993	56.44
711.316	56.44
711.639	56.46
711.962	56.48
712.284	56.49
712.607	56.48
712.93	56.48
713.252	56.48
713.575	56.52
713.897	56.5
714.22	56.52
714.542	56.53
714.864	56.53
715.187	56.53
715.509	56.54
715.831	56.53
716.153	56.52
716.475	56.54
716.798	56.52
717.12	56.5
717.442	56.52
717.764	56.52
718.085	56.55
718.407	56.53
718.729	56.54
719.051	56.53
719.373	56.54
719.695	56.56
720.016	56.59
720.338	56.61
720.659	56.61
720.981	56.61
721.302	56.6
721.624	56.62
721.945	56.6
722.267	56.62
722.588	56.63
722.909	56.62
723.231	56.61
723.552	56.61
723.873	56.59
724.194	56.58
724.515	56.58
724.836	56.59
725.157	56.59
725.478	56.6
725.799	56.6
726.12	56.62
726.441	56.61
726.762	56.6
727.083	56.62
727.403	56.61
727.724	56.59
728.045	56.58
728.365	56.58
728.686	56.59
729.006	56.66
729.327	56.68
729.647	56.7
729.967	56.71
730.288	56.71
730.608	56.69
730.928	56.7
731.249	56.68
731.569	56.68
731.889	56.7
732.209	56.72
732.529	56.71
732.849	56.74
733.169	56.72
733.489	56.69
733.809	56.69
734.129	56.72
734.448	56.75
734.768	56.77
735.088	56.8
735.408	56.8
735.727	56.78
736.047	56.77
736.366	56.78
736.686	56.78
737.005	56.81
737.325	56.81
737.644	56.83
737.963	56.81
738.283	56.81
738.602	56.8
738.921	56.78
739.24	56.82
739.56	56.82
739.879	56.82
740.198	56.79
740.517	56.8
740.836	56.8
741.155	56.79
741.473	56.79
741.792	56.78
742.111	56.71
742.43	56.68
742.748	56.66
743.067	56.68
743.386	56.72
743.704	56.73
744.023	56.72
744.341	56.69
744.66	56.72
744.978	56.72
745.297	56.71
745.615	56.71
745.933	56.67
746.252	56.65
746.57	56.67
746.888	56.66
747.206	56.63
747.524	56.59
747.842	56.55
748.16	56.56
748.478	56.56
748.796	56.56
749.114	56.59
749.432	56.6
749.749	56.62
750.067	56.62
750.385	56.63
750.703	56.63
751.02	56.62
751.338	56.6
751.655	56.58
751.973	56.61
752.29	56.57
752.608	56.56
752.925	56.54
753.242	56.58
753.56	56.59
753.877	56.58
754.194	56.62
754.511	56.62
754.828	56.61
755.145	56.63
755.462	56.64
755.779	56.63
756.096	56.61
756.413	56.61
756.73	56.6
757.047	56.65
757.364	56.7
757.68	56.7
757.997	56.71
758.314	56.67
758.63	56.67
758.947	56.68
759.264	56.69
759.58	56.68
759.896	56.73
760.213	56.75
760.529	56.75
760.846	56.78
761.162	56.78
761.478	56.8
761.794	56.84
762.11	56.83
762.426	56.84
762.743	56.82
763.059	56.83
763.375	56.81
763.69	56.81
764.006	56.84
764.322	56.86
764.638	56.88
764.954	56.87
765.27	56.87
765.585	56.88
765.901	56.89
766.216	56.87
766.532	56.83
766.848	56.84
767.163	56.82
767.478	56.81
767.794	56.84
768.109	56.83
768.424	56.84
768.74	56.84
769.055	56.84
769.37	56.81
769.685	56.81
770	56.8
770.315	56.79
770.63	56.79
770.945	56.79
771.26	56.81
771.575	56.81
771.89	56.81
772.205	56.79
772.52	56.82
772.834	56.76
773.149	56.75
773.464	56.75
773.778	56.73
774.093	56.71
774.407	56.66
774.722	56.61
775.036	56.61
775.351	56.59
775.665	56.62
775.979	56.59
776.293	56.6
776.608	56.56
776.922	56.57
777.236	56.55
777.55	56.55
777.864	56.58
778.178	56.6
778.492	56.59
778.806	56.56
779.12	56.54
779.434	56.59
779.747	56.6
780.061	56.61
780.375	56.63
780.689	56.63
781.002	56.65
781.316	56.68
781.629	56.64
781.943	56.64
782.256	56.67
782.57	56.66
782.883	56.66
783.196	56.61
783.51	56.59
783.823	56.54
784.136	56.52
784.449	56.52
784.762	56.53
785.075	56.54
785.388	56.52
785.701	56.48
786.014	56.49
786.327	56.49
786.64	56.47
786.953	56.46
787.266	56.52
787.578	56.54
787.891	56.56
788.204	56.55
788.516	56.57
788.829	56.56
789.141	56.53
789.454	56.52
789.766	56.55
790.079	56.6
790.391	56.54
790.703	56.51
791.016	56.48
791.328	56.51
791.64	56.57
791.952	56.61
792.264	56.56
792.576	56.55
792.888	56.55
793.2	56.58
793.512	56.59
793.824	56.57
794.136	56.55
794.448	56.55
794.76	56.54
795.071	56.52
795.383	56.51
795.695	56.49
796.006	56.49
796.318	56.48
796.629	56.51
796.941	56.47
797.252	56.41
797.564	56.39
797.875	56.39
798.186	56.38
798.497	56.44
798.809	56.45
799.12	56.44
799.431	56.44
799.742	56.43
800.053	56.38
800.364	56.33
800.675	56.27
800.986	56.26
801.297	56.25
801.608	56.25
801.918	56.27
802.229	56.27
802.54	56.21
802.851	56.16
803.161	56.16
803.472	56.18
803.782	56.17
804.093	56.13
804.403	56.1
804.714	56.13
805.024	56.16
805.334	56.13
805.645	56.14
805.955	56.1
806.265	56.08
806.575	56.05
806.885	56.06
807.195	56.05
807.505	56.07
807.815	56.11
808.125	56.07
808.435	56.07
808.745	56.09
809.055	56.13
809.365	56.11
809.674	56.14
809.984	56.14
810.294	56.16
810.603	56.09
810.913	56.09
811.222	56.08
811.532	56.02
811.841	55.97
812.151	55.99
812.46	56
812.769	55.97
813.079	55.98
813.388	55.99
813.697	56.01
814.006	56.01
814.315	56.01
814.624	56.01
814.933	56.06
815.242	56.11
815.551	56.1
815.86	56.15
816.169	56.18
816.478	56.17
816.786	56.28
817.095	56.28
817.404	56.21
817.712	56.26
818.021	56.27
818.33	56.26
818.638	56.28
818.947	56.32
819.255	56.35
819.563	56.32
819.872	56.36
820.18	56.43
820.488	56.45
820.796	56.49
821.105	56.5
821.413	56.5
821.721	56.5
822.029	56.48
822.337	56.49
822.645	56.51
822.953	56.5
823.26	56.49
823.568	56.52
823.876	56.52
824.184	56.53
824.491	56.56
824.799	56.58
825.107	56.59
825.414	56.59
825.722	56.6
826.029	56.61
826.337	56.61
826.644	56.63
826.951	56.62
827.259	56.62
827.566	56.62
827.873	56.6
828.18	56.61
828.488	56.62
828.795	56.62
829.102	56.64
829.409	56.64
829.716	56.61
830.023	56.64
830.329	56.61
830.636	56.59
830.943	56.62
831.25	56.63
831.557	56.59
831.863	56.58
832.17	56.65
832.476	56.62
832.783	56.52
833.089	56.48
833.396	56.46
833.702	56.45
834.009	56.45
834.315	56.43
834.621	56.45
834.928	56.4
835.234	56.39
835.54	56.38
835.846	56.45
836.152	56.43
836.458	56.4
836.764	56.39
837.07	56.35
837.376	56.32
837.682	56.29
837.988	56.27
838.293	56.27
838.599	56.27
838.905	56.21
839.211	56.21
839.516	56.21
839.822	56.24
840.127	56.27
840.433	56.29
840.738	56.31
841.044	56.25
841.349	56.21
841.654	56.16
841.959	56.1
842.265	56.13
842.57	56.07
842.875	56.1
843.18	56.15
843.485	56.07
843.79	55.98
844.095	56.05
844.4	56.1
844.705	56.01
845.01	55.96
845.315	56.03
845.619	56
845.924	55.87
846.229	55.86
846.533	55.92
846.838	56.02
847.142	55.96
847.447	56.2
847.751	56.2
848.056	56.29
848.36	56.23
848.664	56.14
848.969	56.23
849.273	56.23
849.577	56.17
849.881	56.2
850.185	56.28
850.489	56.31
850.794	56.32
851.097	56.26
851.401	56.3
851.705	56.24
852.009	56.32
852.313	56.38
852.617	56.33
852.92	56.28
853.224	56.31
853.528	56.39
853.831	56.46
854.135	56.59
854.438	56.48
854.742	56.53
855.045	56.66
855.349	56.69
855.652	56.84
855.955	56.94
856.259	56.94
856.562	56.75
856.865	56.7
857.168	56.66
857.471	56.7
857.774	56.92
858.077	56.99
858.38	57.06
858.683	57.03
858.986	56.94
859.289	56.9
859.592	56.96
859.894	56.69
860.197	56.74
860.5	56.72
860.802	56.94
861.105	56.93
861.407	56.82
861.71	56.79
862.012	56.73
862.315	56.61
862.617	56.64
862.919	56.58
863.222	56.56
863.524	56.55
863.826	56.56
864.128	56.56
864.43	56.74
864.732	56.68
865.034	56.52
865.336	56.62
865.638	56.53
865.94	56.38
866.242	56.41
866.544	56.51
866.846	56.68
867.147	56.69
867.449	56.68
867.751	56.67
868.052	56.55
868.354	56.41
868.655	56.57
868.957	56.67
869.258	56.71
869.56	56.79
869.861	56.82
870.162	56.58
870.463	56.62
870.765	56.52
871.066	56.53
871.367	56.62
871.668	56.71
871.969	56.77
872.27	56.78
872.571	56.74
872.872	56.72
873.173	56.63
873.473	56.68
873.774	56.81
874.075	56.8
874.376	56.95
874.676	57.08
874.977	57.03
875.277	57.07
875.578	57.14
875.878	57.2
876.179	57.22
876.479	57.21
876.78	56.88
877.08	56.83
877.38	57.03
877.68	56.88
877.981	56.83
878.281	57.15
878.581	57.06
