Data from UWBM37214_Reflection_00010.txt Node
Date: Sun May 02 14:04:41 EDT 2021
User: vgr7
Spectrometer: USB2G7710
Scans to average: 10
Trigger mode: 4
Integration Time (sec): 1.000000E-1
Electric dark correction enabled: true
Boxcar width: 20
XAxis mode: Wavelengths
Number of Pixels in Spectrum: 2048
>>>>>Begin Spectral Data<<<<<
177.721	119.74
178.105	191.53
178.488	-3950
178.871	531.25
179.254	206.65
179.636	121.8
180.019	77.4
180.402	50.46
180.785	35.77
181.168	37.24
181.55	29.07
181.933	37.2
182.316	28.63
182.698	16.56
183.081	8.29
183.463	4.01
183.846	-0.71
184.228	1.18
184.611	-0.87
184.993	1.35
185.376	1.9
185.758	4.79
186.14	9.87
186.522	10.29
186.904	11.47
187.287	10.87
187.669	10.39
188.051	10.3
188.433	9.65
188.815	6.09
189.197	6.9
189.579	5.89
189.961	4.78
190.342	4.52
190.724	3.73
191.106	3.84
191.488	3.59
191.869	2.79
192.251	0.26
192.633	0.78
193.014	1.26
193.396	-1.01
193.777	0.32
194.159	0.07
194.54	-0.08
194.922	-2.97
195.303	-3.29
195.684	-4.28
196.065	-5.83
196.447	-4.01
196.828	-4.59
197.209	-4.22
197.59	-7.31
197.971	-7.38
198.352	-3.99
198.733	-1.78
199.114	-0.44
199.495	1.37
199.876	1.01
200.257	2.51
200.638	0.81
201.018	1.82
201.399	2.02
201.78	1.01
202.16	0.86
202.541	0.21
202.922	-0.86
203.302	1.21
203.683	1.07
204.063	0.91
204.444	1.79
204.824	1.51
205.204	0.97
205.585	2.96
205.965	5.22
206.345	5.13
206.725	5.14
207.106	5.29
207.486	5.63
207.866	7.17
208.246	6.24
208.626	5.95
209.006	6.67
209.386	5.59
209.766	5.51
210.145	4.99
210.525	6.45
210.905	8.59
211.285	6.87
211.664	8.78
212.044	7.14
212.424	7.36
212.803	7.15
213.183	7.26
213.562	8.65
213.942	8.13
214.321	7.5
214.701	6.26
215.08	5.75
215.459	5.62
215.838	4.78
216.218	5.12
216.597	5.77
216.976	7.19
217.355	7.3
217.734	7.75
218.113	8.33
218.492	8.15
218.871	6.89
219.25	7.8
219.629	7.85
220.008	7.5
220.387	6.42
220.766	7.23
221.144	6.38
221.523	5.43
221.902	6.66
222.28	6.76
222.659	6.97
223.037	5.85
223.416	5.96
223.794	6.37
224.173	5.95
224.551	5.28
224.929	5.99
225.308	5.82
225.686	5.84
226.064	5.9
226.442	5.11
226.821	6.1
227.199	6.24
227.577	6.25
227.955	5.78
228.333	5.91
228.711	5.54
229.089	4.75
229.467	4.51
229.845	4.28
230.222	4.44
230.6	4.5
230.978	4.4
231.356	4.45
231.733	4.45
232.111	3.88
232.488	3.64
232.866	3.53
233.243	3.39
233.621	3.33
233.998	3.44
234.376	3.61
234.753	3.46
235.13	3.44
235.508	3.72
235.885	3.85
236.262	3.74
236.639	3.76
237.016	3.68
237.393	3.6
237.77	3.63
238.147	3.55
238.524	3.6
238.901	3.57
239.278	3.62
239.655	3.7
240.032	3.75
240.409	3.76
240.785	3.84
241.162	3.83
241.539	3.81
241.915	3.88
242.292	3.87
242.668	3.84
243.045	3.84
243.421	3.87
243.798	3.86
244.174	3.95
244.551	3.99
244.927	4.03
245.303	4.06
245.679	4.08
246.056	4.06
246.432	4.07
246.808	4.06
247.184	4.06
247.56	4.09
247.936	4.06
248.312	4.07
248.688	4.07
249.064	4.07
249.44	4.09
249.815	4.06
250.191	4.02
250.567	4.03
250.943	4.01
251.318	3.97
251.694	3.99
252.069	3.95
252.445	3.96
252.82	3.95
253.196	3.93
253.571	3.95
253.947	3.95
254.322	3.94
254.697	3.92
255.073	3.91
255.448	3.94
255.823	3.89
256.198	3.88
256.573	3.88
256.948	3.9
257.323	3.86
257.698	3.82
258.073	3.79
258.448	3.77
258.823	3.74
259.198	3.72
259.573	3.68
259.948	3.67
260.322	3.64
260.697	3.63
261.072	3.61
261.446	3.6
261.821	3.58
262.195	3.58
262.57	3.58
262.944	3.59
263.319	3.61
263.693	3.59
264.067	3.59
264.442	3.57
264.816	3.54
265.19	3.54
265.564	3.56
265.938	3.56
266.313	3.55
266.687	3.55
267.061	3.56
267.435	3.56
267.809	3.54
268.183	3.54
268.556	3.54
268.93	3.52
269.304	3.51
269.678	3.52
270.051	3.51
270.425	3.5
270.799	3.48
271.172	3.5
271.546	3.48
271.919	3.47
272.293	3.47
272.666	3.47
273.04	3.49
273.413	3.52
273.787	3.55
274.16	3.56
274.533	3.57
274.906	3.57
275.279	3.57
275.653	3.58
276.026	3.6
276.399	3.61
276.772	3.62
277.145	3.61
277.518	3.63
277.891	3.62
278.263	3.62
278.636	3.61
279.009	3.61
279.382	3.61
279.755	3.64
280.127	3.66
280.5	3.67
280.872	3.66
281.245	3.66
281.617	3.67
281.99	3.68
282.362	3.66
282.735	3.67
283.107	3.68
283.479	3.68
283.852	3.68
284.224	3.69
284.596	3.69
284.968	3.69
285.34	3.7
285.713	3.72
286.085	3.73
286.457	3.73
286.829	3.75
287.201	3.76
287.572	3.76
287.944	3.77
288.316	3.77
288.688	3.76
289.06	3.75
289.431	3.76
289.803	3.79
290.175	3.81
290.546	3.83
290.918	3.84
291.289	3.84
291.661	3.86
292.032	3.87
292.403	3.88
292.775	3.9
293.146	3.92
293.517	3.93
293.889	3.96
294.26	3.98
294.631	4
295.002	4.01
295.373	4.02
295.744	4.05
296.115	4.08
296.486	4.11
296.857	4.14
297.228	4.16
297.599	4.21
297.97	4.23
298.34	4.26
298.711	4.29
299.082	4.31
299.452	4.34
299.823	4.38
300.194	4.4
300.564	4.41
300.935	4.43
301.305	4.46
301.676	4.48
302.046	4.51
302.416	4.54
302.787	4.56
303.157	4.6
303.527	4.65
303.897	4.69
304.267	4.74
304.637	4.78
305.008	4.81
305.378	4.85
305.748	4.87
306.117	4.91
306.487	4.96
306.857	5
307.227	5.04
307.597	5.09
307.967	5.12
308.336	5.16
308.706	5.18
309.076	5.21
309.445	5.25
309.815	5.28
310.184	5.32
310.554	5.35
310.923	5.39
311.293	5.43
311.662	5.45
312.031	5.48
312.401	5.51
312.77	5.53
313.139	5.56
313.508	5.6
313.877	5.64
314.246	5.67
314.616	5.7
314.985	5.73
315.353	5.78
315.722	5.82
316.091	5.86
316.46	5.88
316.829	5.92
317.198	5.96
317.567	5.99
317.935	6.04
318.304	6.07
318.672	6.09
319.041	6.13
319.41	6.16
319.778	6.19
320.147	6.22
320.515	6.24
320.883	6.28
321.252	6.3
321.62	6.33
321.988	6.37
322.357	6.41
322.725	6.45
323.093	6.47
323.461	6.49
323.829	6.53
324.197	6.55
324.565	6.57
324.933	6.6
325.301	6.61
325.669	6.64
326.037	6.64
326.405	6.64
326.772	6.66
327.14	6.67
327.508	6.69
327.875	6.69
328.243	6.7
328.61	6.7
328.978	6.71
329.346	6.72
329.713	6.74
330.08	6.75
330.448	6.74
330.815	6.75
331.182	6.76
331.55	6.77
331.917	6.78
332.284	6.77
332.651	6.79
333.018	6.8
333.385	6.83
333.752	6.85
334.119	6.86
334.486	6.88
334.853	6.9
335.22	6.92
335.587	6.94
335.954	6.96
336.32	6.98
336.687	6.98
337.054	6.98
337.42	6.98
337.787	6.99
338.153	7.01
338.52	7.02
338.886	7.02
339.253	7.04
339.619	7.06
339.986	7.08
340.352	7.09
340.718	7.1
341.084	7.11
341.451	7.13
341.817	7.13
342.183	7.15
342.549	7.16
342.915	7.19
343.281	7.21
343.647	7.22
344.013	7.23
344.379	7.24
344.745	7.25
345.11	7.27
345.476	7.29
345.842	7.3
346.208	7.32
346.573	7.32
346.939	7.32
347.304	7.35
347.67	7.35
348.035	7.35
348.401	7.34
348.766	7.36
349.132	7.36
349.497	7.35
349.862	7.35
350.228	7.35
350.593	7.34
350.958	7.34
351.323	7.34
351.688	7.35
352.053	7.35
352.418	7.35
352.783	7.34
353.148	7.34
353.513	7.34
353.878	7.33
354.243	7.33
354.608	7.31
354.972	7.3
355.337	7.29
355.702	7.29
356.066	7.28
356.431	7.27
356.795	7.27
357.16	7.25
357.524	7.24
357.889	7.23
358.253	7.21
358.618	7.19
358.982	7.18
359.346	7.17
359.71	7.16
360.075	7.15
360.439	7.14
360.803	7.12
361.167	7.1
361.531	7.1
361.895	7.08
362.259	7.06
362.623	7.04
362.987	7.02
363.351	7.01
363.714	6.99
364.078	6.96
364.442	6.95
364.806	6.93
365.169	6.91
365.533	6.9
365.896	6.87
366.26	6.85
366.623	6.83
366.987	6.8
367.35	6.78
367.714	6.75
368.077	6.71
368.44	6.68
368.803	6.65
369.167	6.61
369.53	6.57
369.893	6.53
370.256	6.49
370.619	6.46
370.982	6.43
371.345	6.39
371.708	6.35
372.071	6.31
372.434	6.28
372.797	6.24
373.159	6.2
373.522	6.17
373.885	6.15
374.247	6.1
374.61	6.05
374.973	6.01
375.335	5.97
375.698	5.93
376.06	5.89
376.423	5.85
376.785	5.81
377.147	5.78
377.51	5.74
377.872	5.71
378.234	5.67
378.596	5.64
378.958	5.61
379.321	5.57
379.683	5.54
380.045	5.5
380.407	5.47
380.769	5.43
381.13	5.4
381.492	5.37
381.854	5.34
382.216	5.31
382.578	5.29
382.939	5.26
383.301	5.24
383.663	5.2
384.024	5.17
384.386	5.15
384.747	5.12
385.109	5.09
385.47	5.06
385.832	5.03
386.193	5
386.554	4.98
386.916	4.95
387.277	4.92
387.638	4.9
387.999	4.87
388.36	4.85
388.721	4.82
389.082	4.81
389.443	4.79
389.804	4.76
390.165	4.74
390.526	4.73
390.887	4.7
391.248	4.68
391.609	4.66
391.969	4.64
392.33	4.62
392.691	4.6
393.051	4.58
393.412	4.55
393.772	4.53
394.133	4.51
394.493	4.49
394.854	4.47
395.214	4.44
395.574	4.42
395.935	4.4
396.295	4.38
396.655	4.35
397.015	4.33
397.376	4.31
397.736	4.29
398.096	4.27
398.456	4.25
398.816	4.23
399.176	4.21
399.535	4.19
399.895	4.18
400.255	4.16
400.615	4.14
400.975	4.13
401.334	4.11
401.694	4.1
402.054	4.09
402.413	4.07
402.773	4.05
403.132	4.04
403.492	4.03
403.851	4.01
404.211	4
404.57	3.99
404.929	3.98
405.288	3.97
405.648	3.96
406.007	3.95
406.366	3.94
406.725	3.93
407.084	3.93
407.443	3.92
407.802	3.91
408.161	3.9
408.52	3.9
408.879	3.89
409.238	3.88
409.596	3.88
409.955	3.87
410.314	3.87
410.673	3.86
411.031	3.86
411.39	3.85
411.748	3.85
412.107	3.85
412.465	3.85
412.824	3.86
413.182	3.87
413.54	3.88
413.899	3.9
414.257	3.93
414.615	3.95
414.974	3.98
415.332	4
415.69	4.03
416.048	4.05
416.406	4.08
416.764	4.1
417.122	4.12
417.48	4.14
417.838	4.16
418.195	4.18
418.553	4.19
418.911	4.2
419.269	4.2
419.626	4.19
419.984	4.18
420.342	4.16
420.699	4.14
421.057	4.12
421.414	4.1
421.772	4.09
422.129	4.07
422.486	4.06
422.844	4.05
423.201	4.04
423.558	4.03
423.915	4.03
424.273	4.02
424.63	4.02
424.987	4.01
425.344	4.01
425.701	4
426.058	4
426.415	3.99
426.772	3.98
427.128	3.98
427.485	3.96
427.842	3.95
428.199	3.93
428.555	3.91
428.912	3.89
429.269	3.86
429.625	3.83
429.982	3.81
430.338	3.78
430.695	3.76
431.051	3.72
431.407	3.7
431.764	3.69
432.12	3.67
432.476	3.65
432.832	3.65
433.189	3.65
433.545	3.65
433.901	3.66
434.257	3.68
434.613	3.7
434.969	3.72
435.325	3.75
435.681	3.78
436.036	3.8
436.392	3.82
436.748	3.83
437.104	3.84
437.459	3.86
437.815	3.87
438.171	3.9
438.526	3.92
438.882	3.95
439.237	3.98
439.593	4.01
439.948	4.04
440.304	4.07
440.659	4.09
441.014	4.11
441.369	4.13
441.725	4.15
442.08	4.16
442.435	4.17
442.79	4.17
443.145	4.18
443.5	4.18
443.855	4.17
444.21	4.17
444.565	4.17
444.92	4.16
445.275	4.15
445.629	4.14
445.984	4.13
446.339	4.11
446.693	4.09
447.048	4.08
447.403	4.06
447.757	4.03
448.112	4.01
448.466	3.98
448.82	3.96
449.175	3.94
449.529	3.92
449.883	3.9
450.238	3.87
450.592	3.87
450.946	3.86
451.3	3.85
451.654	3.86
452.008	3.86
452.362	3.86
452.716	3.86
453.07	3.86
453.424	3.85
453.778	3.84
454.132	3.84
454.486	3.83
454.839	3.81
455.193	3.79
455.547	3.78
455.9	3.76
456.254	3.74
456.607	3.72
456.961	3.7
457.314	3.68
457.668	3.67
458.021	3.67
458.375	3.66
458.728	3.66
459.081	3.67
459.434	3.68
459.787	3.69
460.141	3.7
460.494	3.71
460.847	3.72
461.2	3.73
461.553	3.73
461.906	3.74
462.259	3.75
462.611	3.75
462.964	3.76
463.317	3.77
463.67	3.77
464.022	3.79
464.375	3.8
464.728	3.81
465.08	3.81
465.433	3.81
465.785	3.82
466.138	3.81
466.49	3.8
466.843	3.79
467.195	3.77
467.547	3.76
467.899	3.74
468.252	3.72
468.604	3.7
468.956	3.69
469.308	3.68
469.66	3.68
470.012	3.68
470.364	3.68
470.716	3.68
471.068	3.7
471.42	3.71
471.772	3.73
472.123	3.74
472.475	3.76
472.827	3.77
473.178	3.78
473.53	3.79
473.882	3.8
474.233	3.82
474.585	3.86
474.936	3.91
475.288	3.99
475.639	4.09
475.99	4.21
476.342	4.34
476.693	4.48
477.044	4.62
477.395	4.77
477.746	4.93
478.097	5.08
478.448	5.24
478.8	5.39
479.15	5.53
479.501	5.66
479.852	5.78
480.203	5.89
480.554	6
480.905	6.1
481.255	6.2
481.606	6.3
481.957	6.39
482.307	6.48
482.658	6.56
483.009	6.64
483.359	6.71
483.709	6.79
484.06	6.86
484.41	6.93
484.761	7
485.111	7.07
485.461	7.13
485.811	7.19
486.162	7.25
486.512	7.3
486.862	7.33
487.212	7.36
487.562	7.38
487.912	7.39
488.262	7.4
488.612	7.4
488.961	7.39
489.311	7.35
489.661	7.3
490.011	7.23
490.36	7.14
490.71	7.04
491.06	6.93
491.409	6.81
491.759	6.69
492.108	6.56
492.458	6.43
492.807	6.29
493.157	6.15
493.506	6.02
493.855	5.9
494.204	5.78
494.554	5.67
494.903	5.57
495.252	5.48
495.601	5.39
495.95	5.3
496.299	5.22
496.648	5.15
496.997	5.09
497.346	5.03
497.695	4.97
498.043	4.91
498.392	4.87
498.741	4.82
499.09	4.78
499.438	4.74
499.787	4.71
500.135	4.69
500.484	4.67
500.832	4.66
501.181	4.67
501.529	4.7
501.878	4.73
502.226	4.77
502.574	4.82
502.923	4.87
503.271	4.93
503.619	4.98
503.967	5.04
504.315	5.1
504.663	5.16
505.011	5.22
505.359	5.29
505.707	5.36
506.055	5.43
506.403	5.5
506.751	5.58
507.098	5.66
507.446	5.74
507.794	5.82
508.141	5.92
508.489	6.01
508.837	6.12
509.184	6.22
509.531	6.33
509.879	6.44
510.226	6.56
510.574	6.69
510.921	6.83
511.268	6.97
511.616	7.11
511.963	7.26
512.31	7.41
512.657	7.56
513.004	7.71
513.351	7.86
513.698	7.99
514.045	8.12
514.392	8.24
514.739	8.36
515.086	8.47
515.432	8.59
515.779	8.7
516.126	8.81
516.473	8.94
516.819	9.07
517.166	9.22
517.512	9.38
517.859	9.56
518.205	9.74
518.552	9.95
518.898	10.18
519.245	10.43
519.591	10.74
519.937	11.1
520.283	11.51
520.629	11.96
520.976	12.44
521.322	12.93
521.668	13.45
522.014	13.97
522.36	14.49
522.706	15.01
523.052	15.51
523.398	15.99
523.743	16.43
524.089	16.82
524.435	17.2
524.781	17.56
525.126	17.92
525.472	18.28
525.817	18.64
526.163	18.98
526.509	19.31
526.854	19.65
527.199	19.98
527.545	20.32
527.89	20.67
528.235	21.01
528.581	21.34
528.926	21.65
529.271	21.94
529.616	22.23
529.961	22.5
530.306	22.77
530.651	23.02
530.996	23.26
531.341	23.47
531.686	23.66
532.031	23.85
532.376	24.06
532.721	24.29
533.065	24.54
533.41	24.8
533.755	25.04
534.099	25.25
534.444	25.45
534.788	25.62
535.133	25.79
535.477	25.93
535.822	26.06
536.166	26.15
536.51	26.2
536.855	26.2
537.199	26.19
537.543	26.17
537.887	26.18
538.231	26.22
538.576	26.26
538.92	26.28
539.264	26.3
539.608	26.31
539.951	26.29
540.295	26.28
540.639	26.25
540.983	26.21
541.327	26.15
541.671	26.08
542.014	26.02
542.358	25.98
542.701	26
543.045	26.07
543.389	26.16
543.732	26.28
544.075	26.41
544.419	26.55
544.762	26.69
545.105	26.86
545.449	27.03
545.792	27.21
546.135	27.38
546.478	27.53
546.821	27.64
547.165	27.71
547.508	27.73
547.851	27.72
548.194	27.68
548.536	27.6
548.879	27.5
549.222	27.39
549.565	27.26
549.908	27.15
550.25	27.05
550.593	27
550.936	27.01
551.278	27.06
551.621	27.13
551.963	27.23
552.306	27.35
552.648	27.49
552.991	27.66
553.333	27.84
553.675	28.05
554.017	28.29
554.36	28.54
554.702	28.83
555.044	29.14
555.386	29.5
555.728	29.9
556.07	30.25
556.412	30.61
556.754	30.92
557.096	31.17
557.438	31.43
557.78	31.68
558.121	31.93
558.463	32.18
558.805	32.43
559.147	32.69
559.488	32.95
559.83	33.2
560.171	33.46
560.513	33.7
560.854	33.96
561.196	34.21
561.537	34.46
561.878	34.7
562.22	34.93
562.561	35.15
562.902	35.38
563.243	35.61
563.584	35.84
563.925	36.07
564.266	36.3
564.607	36.53
564.948	36.76
565.289	36.99
565.63	37.21
565.971	37.43
566.312	37.64
566.653	37.85
566.993	38.06
567.334	38.27
567.675	38.47
568.015	38.66
568.356	38.84
568.696	39.03
569.037	39.21
569.377	39.38
569.718	39.56
570.058	39.72
570.398	39.87
570.739	40.03
571.079	40.18
571.419	40.34
571.759	40.47
572.099	40.62
572.439	40.78
572.779	40.92
573.119	41.06
573.459	41.2
573.799	41.34
574.139	41.47
574.479	41.61
574.819	41.74
575.158	41.86
575.498	41.99
575.838	42.12
576.177	42.26
576.517	42.39
576.856	42.51
577.196	42.63
577.535	42.76
577.875	42.89
578.214	43.01
578.553	43.13
578.893	43.25
579.232	43.35
579.571	43.48
579.91	43.59
580.25	43.71
580.589	43.84
580.928	43.95
581.267	44.08
581.606	44.2
581.945	44.33
582.283	44.46
582.622	44.59
582.961	44.72
583.3	44.85
583.639	44.97
583.977	45.1
584.316	45.23
584.654	45.35
584.993	45.48
585.332	45.59
585.67	45.71
586.008	45.82
586.347	45.93
586.685	46.05
587.024	46.16
587.362	46.27
587.7	46.38
588.038	46.51
588.376	46.63
588.715	46.75
589.053	46.87
589.391	47
589.729	47.12
590.067	47.25
590.404	47.36
590.742	47.47
591.08	47.57
591.418	47.68
591.756	47.77
592.093	47.87
592.431	47.97
592.769	48.05
593.106	48.14
593.444	48.22
593.781	48.3
594.119	48.38
594.456	48.45
594.793	48.52
595.131	48.61
595.468	48.68
595.805	48.76
596.143	48.84
596.48	48.93
596.817	49.02
597.154	49.1
597.491	49.19
597.828	49.27
598.165	49.36
598.502	49.45
598.839	49.53
599.176	49.62
599.512	49.69
599.849	49.76
600.186	49.84
600.523	49.9
600.859	49.97
601.196	50.03
601.532	50.09
601.869	50.15
602.205	50.21
602.542	50.28
602.878	50.34
603.215	50.39
603.551	50.45
603.887	50.5
604.223	50.55
604.56	50.6
604.896	50.65
605.232	50.69
605.568	50.73
605.904	50.78
606.24	50.82
606.576	50.87
606.912	50.9
607.248	50.95
607.583	50.99
607.919	51.04
608.255	51.08
608.591	51.14
608.926	51.17
609.262	51.22
609.597	51.25
609.933	51.28
610.268	51.32
610.604	51.34
610.939	51.38
611.275	51.43
611.61	51.45
611.945	51.48
612.281	51.51
612.616	51.53
612.951	51.56
613.286	51.6
613.621	51.64
613.956	51.68
614.291	51.71
614.626	51.75
614.961	51.78
615.296	51.81
615.631	51.84
615.966	51.86
616.3	51.89
616.635	51.92
616.97	51.95
617.304	51.98
617.639	52.01
617.973	52.05
618.308	52.08
618.642	52.14
618.977	52.19
619.311	52.22
619.646	52.26
619.98	52.31
620.314	52.34
620.648	52.37
620.983	52.41
621.317	52.45
621.651	52.48
621.985	52.52
622.319	52.54
622.653	52.58
622.987	52.62
623.321	52.66
623.655	52.69
623.988	52.72
624.322	52.75
624.656	52.78
624.99	52.8
625.323	52.84
625.657	52.87
625.99	52.89
626.324	52.92
626.657	52.95
626.991	52.98
627.324	52.99
627.658	53.02
627.991	53.05
628.324	53.07
628.657	53.1
628.991	53.14
629.324	53.17
629.657	53.2
629.99	53.22
630.323	53.25
630.656	53.27
630.989	53.3
631.322	53.31
631.655	53.34
631.987	53.36
632.32	53.37
632.653	53.4
632.986	53.42
633.318	53.44
633.651	53.46
633.984	53.49
634.316	53.52
634.649	53.55
634.981	53.56
635.313	53.58
635.646	53.6
635.978	53.64
636.31	53.65
636.643	53.68
636.975	53.69
637.307	53.71
637.639	53.73
637.971	53.76
638.303	53.78
638.635	53.8
638.967	53.81
639.299	53.83
639.631	53.85
639.963	53.88
640.295	53.9
640.626	53.92
640.958	53.94
641.29	53.97
641.621	54
641.953	54.02
642.285	54.05
642.616	54.05
642.948	54.09
643.279	54.11
643.61	54.14
643.942	54.17
644.273	54.2
644.604	54.23
644.936	54.25
645.267	54.28
645.598	54.32
645.929	54.35
646.26	54.36
646.591	54.38
646.922	54.42
647.253	54.43
647.584	54.45
647.915	54.48
648.245	54.5
648.576	54.53
648.907	54.58
649.238	54.61
649.568	54.61
649.899	54.64
650.229	54.67
650.56	54.69
650.89	54.72
651.221	54.75
651.551	54.76
651.882	54.8
652.212	54.82
652.542	54.86
652.872	54.89
653.203	54.9
653.533	54.91
653.863	54.93
654.193	54.96
654.523	54.99
654.853	55.02
655.183	55.04
655.513	55.06
655.843	55.08
656.172	55.12
656.502	55.13
656.832	55.15
657.162	55.17
657.491	55.2
657.821	55.23
658.15	55.25
658.48	55.28
658.809	55.31
659.139	55.33
659.468	55.36
659.798	55.38
660.127	55.42
660.456	55.43
660.785	55.45
661.115	55.48
661.444	55.5
661.773	55.52
662.102	55.54
662.431	55.54
662.76	55.54
663.089	55.57
663.418	55.58
663.747	55.59
664.076	55.61
664.404	55.64
664.733	55.65
665.062	55.68
665.39	55.69
665.719	55.71
666.048	55.73
666.376	55.76
666.705	55.79
667.033	55.81
667.362	55.83
667.69	55.87
668.018	55.88
668.347	55.88
668.675	55.91
669.003	55.92
669.331	55.94
669.659	55.95
669.987	55.95
670.315	55.98
670.643	55.99
670.971	56
671.299	56.01
671.627	56.03
671.955	56.04
672.283	56.04
672.61	56.06
672.938	56.06
673.266	56.07
673.593	56.07
673.921	56.08
674.249	56.1
674.576	56.12
674.904	56.12
675.231	56.13
675.558	56.16
675.886	56.18
676.213	56.22
676.54	56.24
676.867	56.28
677.195	56.29
677.522	56.31
677.849	56.31
678.176	56.33
678.503	56.34
678.83	56.36
679.157	56.37
679.484	56.38
679.81	56.39
680.137	56.42
680.464	56.44
680.791	56.47
681.117	56.48
681.444	56.51
681.771	56.52
682.097	56.52
682.424	56.53
682.75	56.52
683.077	56.53
683.403	56.55
683.729	56.56
684.056	56.58
684.382	56.59
684.708	56.6
685.034	56.6
685.36	56.62
685.686	56.64
686.012	56.64
686.339	56.65
686.664	56.69
686.99	56.7
687.316	56.72
687.642	56.74
687.968	56.75
688.294	56.76
688.619	56.77
688.945	56.77
689.271	56.79
689.596	56.79
689.922	56.81
690.247	56.8
690.573	56.82
690.898	56.82
691.224	56.85
691.549	56.86
691.874	56.86
692.2	56.85
692.525	56.87
692.85	56.91
693.175	56.92
693.5	56.92
693.825	56.93
694.15	56.94
694.475	56.94
694.8	56.93
695.125	56.95
695.45	56.98
695.775	57
696.099	57.03
696.424	57.04
696.749	57.07
697.073	57.09
697.398	57.1
697.723	57.12
698.047	57.13
698.372	57.15
698.696	57.17
699.02	57.18
699.345	57.2
699.669	57.23
699.993	57.24
700.318	57.24
700.642	57.26
700.966	57.28
701.29	57.29
701.614	57.32
701.938	57.32
702.262	57.35
702.586	57.34
702.91	57.36
703.234	57.38
703.557	57.38
703.881	57.38
704.205	57.41
704.529	57.44
704.852	57.44
705.176	57.47
705.499	57.5
705.823	57.51
706.146	57.54
706.47	57.55
706.793	57.55
707.117	57.59
707.44	57.61
707.763	57.65
708.086	57.69
708.409	57.71
708.733	57.71
709.056	57.73
709.379	57.75
709.702	57.77
710.025	57.75
710.348	57.76
710.671	57.75
710.993	57.75
711.316	57.77
711.639	57.78
711.962	57.8
712.284	57.81
712.607	57.81
712.93	57.8
713.252	57.8
713.575	57.83
713.897	57.85
714.22	57.84
714.542	57.88
714.864	57.89
715.187	57.92
715.509	57.93
715.831	57.95
716.153	57.94
716.475	57.95
716.798	57.99
717.12	58.02
717.442	58.05
717.764	58.05
718.085	58.09
718.407	58.08
718.729	58.09
719.051	58.12
719.373	58.1
719.695	58.12
720.016	58.14
720.338	58.12
720.659	58.12
720.981	58.14
721.302	58.18
721.624	58.19
721.945	58.23
722.267	58.24
722.588	58.27
722.909	58.29
723.231	58.33
723.552	58.34
723.873	58.37
724.194	58.4
724.515	58.4
724.836	58.42
725.157	58.39
725.478	58.4
725.799	58.42
726.12	58.43
726.441	58.47
726.762	58.48
727.083	58.47
727.403	58.48
727.724	58.48
728.045	58.49
728.365	58.5
728.686	58.5
729.006	58.5
729.327	58.52
729.647	58.53
729.967	58.53
730.288	58.5
730.608	58.51
730.928	58.5
731.249	58.51
731.569	58.54
731.889	58.53
732.209	58.54
732.529	58.55
732.849	58.55
733.169	58.57
733.489	58.59
733.809	58.59
734.129	58.6
734.448	58.59
734.768	58.6
735.088	58.59
735.408	58.6
735.727	58.58
736.047	58.58
736.366	58.59
736.686	58.6
737.005	58.61
737.325	58.62
737.644	58.6
737.963	58.61
738.283	58.61
738.602	58.59
738.921	58.57
739.24	58.62
739.56	58.58
739.879	58.58
740.198	58.59
740.517	58.58
740.836	58.58
741.155	58.59
741.473	58.62
741.792	58.62
742.111	58.63
742.43	58.64
742.748	58.63
743.067	58.64
743.386	58.68
743.704	58.68
744.023	58.71
744.341	58.7
744.66	58.71
744.978	58.73
745.297	58.76
745.615	58.76
745.933	58.77
746.252	58.78
746.57	58.81
746.888	58.79
747.206	58.79
747.524	58.8
747.842	58.79
748.16	58.8
748.478	58.8
748.796	58.83
749.114	58.85
749.432	58.89
749.749	58.89
750.067	58.88
750.385	58.92
750.703	58.92
751.02	58.89
751.338	58.9
751.655	58.92
751.973	58.95
752.29	58.94
752.608	58.97
752.925	59
753.242	59.03
753.56	59.07
753.877	59.04
754.194	59.05
754.511	59
754.828	59.03
755.145	59.04
755.462	59.03
755.779	59.05
756.096	59.12
756.413	59.09
756.73	59.12
757.047	59.12
757.364	59.16
757.68	59.19
757.997	59.2
758.314	59.2
758.63	59.26
758.947	59.29
759.264	59.32
759.58	59.34
759.896	59.38
760.213	59.39
760.529	59.38
760.846	59.42
761.162	59.41
761.478	59.44
761.794	59.42
762.11	59.45
762.426	59.43
762.743	59.43
763.059	59.44
763.375	59.43
763.69	59.44
764.006	59.5
764.322	59.5
764.638	59.52
764.954	59.56
765.27	59.56
765.585	59.55
765.901	59.55
766.216	59.53
766.532	59.49
766.848	59.51
767.163	59.49
767.478	59.49
767.794	59.5
768.109	59.5
768.424	59.49
768.74	59.47
769.055	59.41
769.37	59.44
769.685	59.43
770	59.44
770.315	59.38
770.63	59.33
770.945	59.33
771.26	59.28
771.575	59.24
771.89	59.24
772.205	59.19
772.52	59.17
772.834	59.14
773.149	59.12
773.464	59.11
773.778	59.06
774.093	59.07
774.407	59.04
774.722	59.06
775.036	59.02
775.351	59.01
775.665	59.03
775.979	59.04
776.293	59.04
776.608	59.04
776.922	59.06
777.236	59.07
777.55	59.04
777.864	59.03
778.178	59.03
778.492	59.02
778.806	59
779.12	59.04
779.434	59.07
779.747	59.11
780.061	59.15
780.375	59.24
780.689	59.22
781.002	59.19
781.316	59.24
781.629	59.25
781.943	59.31
782.256	59.31
782.57	59.3
782.883	59.28
783.196	59.39
783.51	59.45
783.823	59.49
784.136	59.54
784.449	59.55
784.762	59.49
785.075	59.5
785.388	59.52
785.701	59.55
786.014	59.63
786.327	59.64
786.64	59.66
786.953	59.65
787.266	59.68
787.578	59.73
787.891	59.74
788.204	59.77
788.516	59.74
788.829	59.76
789.141	59.74
789.454	59.79
789.766	59.73
790.079	59.72
790.391	59.73
790.703	59.72
791.016	59.75
791.328	59.77
791.64	59.76
791.952	59.73
792.264	59.72
792.576	59.7
792.888	59.68
793.2	59.66
793.512	59.67
793.824	59.72
794.136	59.71
794.448	59.76
794.76	59.75
795.071	59.75
795.383	59.71
795.695	59.76
796.006	59.7
796.318	59.7
796.629	59.66
796.941	59.66
797.252	59.66
797.564	59.68
797.875	59.67
798.186	59.64
798.497	59.65
798.809	59.58
799.12	59.57
799.431	59.6
799.742	59.59
800.053	59.57
800.364	59.54
800.675	59.49
800.986	59.48
801.297	59.48
801.608	59.5
801.918	59.5
802.229	59.45
802.54	59.45
802.851	59.51
803.161	59.54
803.472	59.56
803.782	59.52
804.093	59.54
804.403	59.58
804.714	59.65
805.024	59.67
805.334	59.67
805.645	59.71
805.955	59.68
806.265	59.74
806.575	59.76
806.885	59.77
807.195	59.75
807.505	59.77
807.815	59.71
808.125	59.78
808.435	59.75
808.745	59.72
809.055	59.73
809.365	59.76
809.674	59.76
809.984	59.76
810.294	59.76
810.603	59.78
810.913	59.82
811.222	59.79
811.532	59.77
811.841	59.78
812.151	59.79
812.46	59.9
812.769	59.94
813.079	59.96
813.388	59.99
813.697	60.04
814.006	60.1
814.315	60.08
814.624	60.12
814.933	60.13
815.242	60.19
815.551	60.26
815.86	60.32
816.169	60.37
816.478	60.48
816.786	60.53
817.095	60.59
817.404	60.66
817.712	60.67
818.021	60.69
818.33	60.71
818.638	60.81
818.947	60.82
819.255	60.8
819.563	60.82
819.872	60.83
820.18	60.85
820.488	60.92
820.796	60.9
821.105	60.9
821.413	60.92
821.721	60.93
822.029	60.94
822.337	60.96
822.645	60.98
822.953	61.01
823.26	61
823.568	61
823.876	61
824.184	61.01
824.491	61.01
824.799	61
825.107	61
825.414	60.98
825.722	60.99
826.029	61.01
826.337	61.02
826.644	61.03
826.951	61.05
827.259	61.05
827.566	61.06
827.873	61.06
828.18	61.05
828.488	61.04
828.795	61.03
829.102	61.01
829.409	61.01
829.716	60.99
830.023	60.94
830.329	60.92
830.636	60.93
830.943	60.94
831.25	60.87
831.557	60.85
831.863	60.84
832.17	60.82
832.476	60.8
832.783	60.75
833.089	60.68
833.396	60.69
833.702	60.68
834.009	60.68
834.315	60.66
834.621	60.66
834.928	60.62
835.234	60.57
835.54	60.53
835.846	60.57
836.152	60.55
836.458	60.59
836.764	60.56
837.07	60.55
837.376	60.55
837.682	60.48
837.988	60.55
838.293	60.5
838.599	60.46
838.905	60.39
839.211	60.35
839.516	60.23
839.822	60.22
840.127	60.19
840.433	60.18
840.738	60.16
841.044	60.13
841.349	60.09
841.654	60.05
841.959	59.99
842.265	59.97
842.57	59.98
842.875	60.03
843.18	59.94
843.485	59.83
843.79	59.88
844.095	59.81
844.4	59.91
844.705	59.94
845.01	59.96
845.315	60.04
845.619	60.04
845.924	59.99
846.229	60.02
846.533	59.99
846.838	60.03
847.142	59.99
847.447	59.99
847.751	60.05
848.056	60.04
848.36	60.01
848.664	59.97
848.969	59.99
849.273	60
849.577	60.08
849.881	60.11
850.185	60.21
850.489	60.19
850.794	60.32
851.097	60.46
851.401	60.47
851.705	60.55
852.009	60.75
852.313	60.79
852.617	60.88
852.92	60.83
853.224	60.69
853.528	60.75
853.831	60.87
854.135	60.92
854.438	60.96
854.742	61.02
855.045	60.94
855.349	61.16
855.652	61.3
855.955	61.39
856.259	61.36
856.562	61.46
856.865	61.35
857.168	61.26
857.471	61.35
857.774	61.28
858.077	61.33
858.38	61.4
858.683	61.42
858.986	61.37
859.289	61.3
859.592	61.21
859.894	61.1
860.197	61.07
860.5	61.24
860.802	61.13
861.105	61.32
861.407	61.15
861.71	61.2
862.012	61.23
862.315	61.21
862.617	61.13
862.919	61.22
863.222	61.11
863.524	61.11
863.826	61.23
864.128	61.01
864.43	61
864.732	60.97
865.034	60.86
865.336	60.89
865.638	60.98
865.94	60.94
866.242	60.86
866.544	60.98
866.846	60.88
867.147	60.82
867.449	60.94
867.751	60.75
868.052	60.87
868.354	60.75
868.655	60.66
868.957	60.44
869.258	60.38
869.56	60.5
869.861	60.59
870.162	60.57
870.463	60.82
870.765	60.8
871.066	60.83
871.367	60.87
871.668	60.95
871.969	61.13
872.27	61.15
872.571	61.2
872.872	61.05
873.173	61.14
873.473	60.98
873.774	61.12
874.075	61.1
874.376	61.06
874.676	61.09
874.977	61.19
875.277	60.97
875.578	60.93
875.878	60.82
876.179	60.73
876.479	60.97
876.78	61.06
877.08	61.17
877.38	61.25
877.68	61.27
877.981	61.26
878.281	61.31
878.581	61.43
