Data from UWBM122453_Reflection_00002.txt Node
Date: Sun May 02 12:39:36 EDT 2021
User: vgr7
Spectrometer: USB2G7710
Scans to average: 10
Trigger mode: 4
Integration Time (sec): 1.000000E-1
Electric dark correction enabled: true
Boxcar width: 20
XAxis mode: Wavelengths
Number of Pixels in Spectrum: 2048
>>>>>Begin Spectral Data<<<<<
177.721	99.09
178.105	100.61
178.488	101.49
178.871	101.75
179.254	100.58
179.636	97.32
180.019	94.93
180.402	91.94
180.785	88.09
181.168	84.41
181.55	83.22
181.933	114.41
182.316	116.41
182.698	117.4
183.081	117.97
183.463	118.42
183.846	120.86
184.228	121.85
184.611	123.84
184.993	129.68
185.376	132.03
185.758	-105.1
186.14	-50.96
186.522	-19.34
186.904	-7.23
187.287	8.1
187.669	14.45
188.051	15.2
188.433	18.54
188.815	17.08
189.197	16.14
189.579	17.02
189.961	16.93
190.342	13
190.724	17.16
191.106	14.55
191.488	15.41
191.869	9.94
192.251	10.98
192.633	6.49
193.014	5.47
193.396	5.42
193.777	11.52
194.159	10.94
194.54	8.12
194.922	8.43
195.303	12.76
195.684	13.33
196.065	14.49
196.447	14.38
196.828	14.9
197.209	15.37
197.59	5.37
197.971	5.02
198.352	7.37
198.733	9.85
199.114	8.48
199.495	7.76
199.876	6.64
200.257	4.66
200.638	3.67
201.018	-2.34
201.399	-3.97
201.78	-5.21
202.16	-4.12
202.541	-2.92
202.922	-4.61
203.302	-9.09
203.683	-9.87
204.063	-9.93
204.444	-8.34
204.824	-4.82
205.204	-1.8
205.585	5.83
205.965	5.55
206.345	6.38
206.725	1.4
207.106	1.15
207.486	1.09
207.866	1.79
208.246	2.64
208.626	5.29
209.006	10.46
209.386	6.88
209.766	6.47
210.145	6.4
210.525	4.97
210.905	5.7
211.285	7.01
211.664	6
212.044	7.97
212.424	7.36
212.803	3.42
213.183	4.57
213.562	4.98
213.942	3.14
214.321	0.6
214.701	0.16
215.08	2.41
215.459	3.84
215.838	3.25
216.218	4.68
216.597	4.39
216.976	2.73
217.355	2.64
217.734	1.9
218.113	1.89
218.492	3.58
218.871	4.24
219.25	5.31
219.629	3.61
220.008	2.66
220.387	2.43
220.766	2.25
221.144	0.84
221.523	2.18
221.902	2.2
222.28	3.88
222.659	5.81
223.037	5.45
223.416	6.16
223.794	6.84
224.173	6.67
224.551	5.92
224.929	6.16
225.308	7.44
225.686	7.7
226.064	7.98
226.442	7.11
226.821	6.59
227.199	5.96
227.577	4.68
227.955	4.39
228.333	3.77
228.711	3.95
229.089	4.13
229.467	4.06
229.845	5.09
230.222	5.07
230.6	5.28
230.978	4.98
231.356	4.76
231.733	4.53
232.111	4.34
232.488	4.06
232.866	4.24
233.243	4.02
233.621	4.09
233.998	4.02
234.376	4.26
234.753	4.31
235.13	4.56
235.508	5.2
235.885	5.2
236.262	5.13
236.639	5.3
237.016	5.31
237.393	5.3
237.77	5.12
238.147	5.02
238.524	5.1
238.901	5.16
239.278	5.2
239.655	5.2
240.032	5.13
240.409	5.16
240.785	5.11
241.162	5.16
241.539	5.18
241.915	5.25
242.292	5.22
242.668	5.19
243.045	5.2
243.421	5.12
243.798	5.11
244.174	5.1
244.551	5.05
244.927	4.84
245.303	4.74
245.679	4.77
246.056	4.73
246.432	4.7
246.808	4.48
247.184	4.47
247.56	4.45
247.936	4.46
248.312	4.42
248.688	4.5
249.064	4.49
249.44	4.44
249.815	4.46
250.191	4.43
250.567	4.41
250.943	4.46
251.318	4.46
251.694	4.41
252.069	4.35
252.445	4.33
252.82	4.43
253.196	4.44
253.571	4.4
253.947	4.49
254.322	4.43
254.697	4.57
255.073	4.53
255.448	4.52
255.823	4.48
256.198	4.41
256.573	4.22
256.948	4.19
257.323	4.16
257.698	4.11
258.073	4.08
258.448	3.95
258.823	3.94
259.198	3.93
259.573	3.96
259.948	4.01
260.322	3.99
260.697	3.99
261.072	3.98
261.446	3.96
261.821	3.96
262.195	3.91
262.57	3.91
262.944	3.91
263.319	3.88
263.693	3.9
264.067	3.92
264.442	4
264.816	4
265.19	3.96
265.564	4
265.938	3.96
266.313	4
266.687	3.96
267.061	3.98
267.435	3.97
267.809	3.96
268.183	3.93
268.556	3.93
268.93	3.92
269.304	3.87
269.678	3.84
270.051	3.8
270.425	3.81
270.799	3.83
271.172	3.84
271.546	3.83
271.919	3.83
272.293	3.81
272.666	3.83
273.04	3.84
273.413	3.8
273.787	3.8
274.16	3.79
274.533	3.83
274.906	3.8
275.279	3.8
275.653	3.78
276.026	3.77
276.399	3.75
276.772	3.75
277.145	3.75
277.518	3.79
277.891	3.8
278.263	3.81
278.636	3.83
279.009	3.85
279.382	3.82
279.755	3.78
280.127	3.79
280.5	3.79
280.872	3.77
281.245	3.89
281.617	3.9
281.99	3.93
282.362	3.94
282.735	3.93
283.107	3.94
283.479	3.95
283.852	3.96
284.224	3.98
284.596	3.97
284.968	3.85
285.34	3.85
285.713	3.82
286.085	3.74
286.457	3.73
286.829	3.71
287.201	3.72
287.572	3.78
287.944	3.78
288.316	3.81
288.688	3.85
289.06	3.84
289.431	3.84
289.803	3.83
290.175	3.83
290.546	3.85
290.918	3.86
291.289	3.84
291.661	3.84
292.032	3.79
292.403	3.82
292.775	3.9
293.146	3.89
293.517	3.92
293.889	3.98
294.26	3.98
294.631	3.99
295.002	4.02
295.373	4.05
295.744	4.04
296.115	4.04
296.486	3.98
296.857	3.98
297.228	3.96
297.599	3.96
297.97	3.96
298.34	3.97
298.711	3.91
299.082	3.91
299.452	3.94
299.823	3.97
300.194	3.99
300.564	3.97
300.935	3.98
301.305	3.97
301.676	3.94
302.046	3.94
302.416	3.94
302.787	3.95
303.157	3.88
303.527	3.88
303.897	3.88
304.267	3.89
304.637	3.9
305.008	3.92
305.378	3.93
305.748	3.91
306.117	3.97
306.487	4.01
306.857	4.06
307.227	4.06
307.597	4.06
307.967	4.05
308.336	4.06
308.706	4.07
309.076	4.07
309.445	4.05
309.815	3.95
310.184	3.96
310.554	3.9
310.923	3.92
311.293	3.94
311.662	3.95
312.031	3.93
312.401	3.92
312.77	3.88
313.139	3.87
313.508	3.88
313.877	3.82
314.246	3.8
314.616	3.77
314.985	3.73
315.353	3.72
315.722	3.73
316.091	3.73
316.46	3.73
316.829	3.75
317.198	3.78
317.567	3.9
317.935	3.88
318.304	3.92
318.672	3.93
319.041	3.93
319.41	3.93
319.778	3.94
320.147	3.95
320.515	3.94
320.883	3.93
321.252	3.86
321.62	3.9
321.988	3.9
322.357	3.89
322.725	3.95
323.093	3.95
323.461	3.94
323.829	3.94
324.197	3.93
324.565	3.9
324.933	3.89
325.301	3.88
325.669	3.87
326.037	3.88
326.405	3.83
326.772	3.81
327.14	3.81
327.508	3.79
327.875	3.8
328.243	3.81
328.61	3.77
328.978	3.78
329.346	3.78
329.713	3.75
330.08	3.74
330.448	3.74
330.815	3.69
331.182	3.69
331.55	3.68
331.917	3.69
332.284	3.67
332.651	3.69
333.018	3.69
333.385	3.69
333.752	3.7
334.119	3.72
334.486	3.71
334.853	3.69
335.22	3.69
335.587	3.68
335.954	3.68
336.32	3.7
336.687	3.69
337.054	3.67
337.42	3.69
337.787	3.68
338.153	3.7
338.52	3.73
338.886	3.75
339.253	3.73
339.619	3.72
339.986	3.69
340.352	3.69
340.718	3.71
341.084	3.71
341.451	3.71
341.817	3.68
342.183	3.66
342.549	3.69
342.915	3.68
343.281	3.7
343.647	3.71
344.013	3.73
344.379	3.74
344.745	3.74
345.11	3.74
345.476	3.75
345.842	3.77
346.208	3.74
346.573	3.74
346.939	3.75
347.304	3.76
347.67	3.75
348.035	3.77
348.401	3.76
348.766	3.77
349.132	3.76
349.497	3.78
349.862	3.78
350.228	3.79
350.593	3.8
350.958	3.79
351.323	3.78
351.688	3.8
352.053	3.8
352.418	3.8
352.783	3.79
353.148	3.78
353.513	3.77
353.878	3.77
354.243	3.78
354.608	3.78
354.972	3.79
355.337	3.78
355.702	3.77
356.066	3.78
356.431	3.77
356.795	3.77
357.16	3.76
357.524	3.75
357.889	3.75
358.253	3.75
358.618	3.76
358.982	3.77
359.346	3.78
359.71	3.78
360.075	3.79
360.439	3.79
360.803	3.78
361.167	3.78
361.531	3.79
361.895	3.79
362.259	3.79
362.623	3.79
362.987	3.78
363.351	3.8
363.714	3.81
364.078	3.81
364.442	3.81
364.806	3.83
365.169	3.81
365.533	3.8
365.896	3.81
366.26	3.8
366.623	3.79
366.987	3.79
367.35	3.8
367.714	3.8
368.077	3.81
368.44	3.81
368.803	3.82
369.167	3.82
369.53	3.83
369.893	3.85
370.256	3.86
370.619	3.87
370.982	3.86
371.345	3.85
371.708	3.86
372.071	3.86
372.434	3.87
372.797	3.89
373.159	3.9
373.522	3.89
373.885	3.89
374.247	3.89
374.61	3.89
374.973	3.87
375.335	3.86
375.698	3.87
376.06	3.87
376.423	3.87
376.785	3.87
377.147	3.86
377.51	3.87
377.872	3.87
378.234	3.88
378.596	3.89
378.958	3.9
379.321	3.9
379.683	3.9
380.045	3.91
380.407	3.92
380.769	3.91
381.13	3.92
381.492	3.93
381.854	3.94
382.216	3.94
382.578	3.95
382.939	3.96
383.301	3.96
383.663	3.96
384.024	3.95
384.386	3.96
384.747	3.95
385.109	3.94
385.47	3.94
385.832	3.95
386.193	3.94
386.554	3.94
386.916	3.95
387.277	3.95
387.638	3.96
387.999	3.97
388.36	3.97
388.721	3.97
389.082	3.97
389.443	3.97
389.804	3.98
390.165	3.99
390.526	3.99
390.887	3.99
391.248	3.99
391.609	4
391.969	3.99
392.33	4
392.691	4.01
393.051	4.01
393.412	4
393.772	4.01
394.133	4.02
394.493	4.01
394.854	4.02
395.214	4.01
395.574	4.01
395.935	4.01
396.295	4.01
396.655	4.01
397.015	4.01
397.376	4
397.736	4.01
398.096	4.01
398.456	4.01
398.816	4.03
399.176	4.02
399.535	4.03
399.895	4.04
400.255	4.04
400.615	4.04
400.975	4.05
401.334	4.05
401.694	4.05
402.054	4.06
402.413	4.04
402.773	4.05
403.132	4.06
403.492	4.06
403.851	4.06
404.211	4.07
404.57	4.08
404.929	4.09
405.288	4.09
405.648	4.1
406.007	4.1
406.366	4.11
406.725	4.13
407.084	4.12
407.443	4.12
407.802	4.11
408.161	4.11
408.52	4.11
408.879	4.12
409.238	4.12
409.596	4.12
409.955	4.14
410.314	4.14
410.673	4.14
411.031	4.15
411.39	4.16
411.748	4.17
412.107	4.18
412.465	4.19
412.824	4.22
413.182	4.24
413.54	4.27
413.899	4.29
414.257	4.32
414.615	4.37
414.974	4.4
415.332	4.45
415.69	4.49
416.048	4.52
416.406	4.56
416.764	4.6
417.122	4.63
417.48	4.67
417.838	4.7
418.195	4.73
418.553	4.76
418.911	4.77
419.269	4.78
419.626	4.78
419.984	4.77
420.342	4.76
420.699	4.74
421.057	4.72
421.414	4.71
421.772	4.7
422.129	4.69
422.486	4.69
422.844	4.69
423.201	4.69
423.558	4.69
423.915	4.69
424.273	4.69
424.63	4.69
424.987	4.69
425.344	4.69
425.701	4.69
426.058	4.7
426.415	4.7
426.772	4.69
427.128	4.69
427.485	4.68
427.842	4.67
428.199	4.66
428.555	4.65
428.912	4.63
429.269	4.6
429.625	4.59
429.982	4.56
430.338	4.53
430.695	4.51
431.051	4.48
431.407	4.45
431.764	4.44
432.12	4.41
432.476	4.4
432.832	4.39
433.189	4.4
433.545	4.4
433.901	4.42
434.257	4.44
434.613	4.47
434.969	4.49
435.325	4.52
435.681	4.57
436.036	4.58
436.392	4.61
436.748	4.62
437.104	4.62
437.459	4.64
437.815	4.66
438.171	4.69
438.526	4.71
438.882	4.75
439.237	4.79
439.593	4.82
439.948	4.86
440.304	4.89
440.659	4.92
441.014	4.94
441.369	4.98
441.725	5
442.08	5.02
442.435	5.03
442.79	5.04
443.145	5.04
443.5	5.04
443.855	5.04
444.21	5.04
444.565	5.04
444.92	5.03
445.275	5.02
445.629	5.02
445.984	5.01
446.339	5
446.693	5
447.048	4.98
447.403	4.97
447.757	4.94
448.112	4.92
448.466	4.9
448.82	4.88
449.175	4.87
449.529	4.85
449.883	4.83
450.238	4.81
450.592	4.8
450.946	4.8
451.3	4.8
451.654	4.82
452.008	4.82
452.362	4.82
452.716	4.83
453.07	4.83
453.424	4.82
453.778	4.82
454.132	4.8
454.486	4.8
454.839	4.78
455.193	4.75
455.547	4.74
455.9	4.7
456.254	4.68
456.607	4.65
456.961	4.62
457.314	4.6
457.668	4.59
458.021	4.59
458.375	4.58
458.728	4.58
459.081	4.58
459.434	4.59
459.787	4.6
460.141	4.61
460.494	4.62
460.847	4.63
461.2	4.63
461.553	4.64
461.906	4.65
462.259	4.65
462.611	4.66
462.964	4.66
463.317	4.67
463.67	4.67
464.022	4.68
464.375	4.68
464.728	4.68
465.08	4.68
465.433	4.68
465.785	4.67
466.138	4.65
466.49	4.63
466.843	4.61
467.195	4.59
467.547	4.57
467.899	4.55
468.252	4.51
468.604	4.48
468.956	4.46
469.308	4.44
469.66	4.44
470.012	4.43
470.364	4.43
470.716	4.44
471.068	4.46
471.42	4.48
471.772	4.5
472.123	4.51
472.475	4.52
472.827	4.53
473.178	4.54
473.53	4.55
473.882	4.57
474.233	4.59
474.585	4.63
474.936	4.69
475.288	4.79
475.639	4.91
475.99	5.06
476.342	5.22
476.693	5.4
477.044	5.58
477.395	5.76
477.746	5.95
478.097	6.14
478.448	6.33
478.8	6.52
479.15	6.69
479.501	6.86
479.852	7
480.203	7.13
480.554	7.26
480.905	7.39
481.255	7.51
481.606	7.63
481.957	7.73
482.307	7.84
482.658	7.93
483.009	8.03
483.359	8.13
483.709	8.21
484.06	8.29
484.41	8.38
484.761	8.46
485.111	8.54
485.461	8.61
485.811	8.68
486.162	8.74
486.512	8.8
486.862	8.84
487.212	8.87
487.562	8.89
487.912	8.91
488.262	8.91
488.612	8.91
488.961	8.89
489.311	8.85
489.661	8.77
490.011	8.67
490.36	8.56
490.71	8.42
491.06	8.27
491.409	8.12
491.759	7.95
492.108	7.79
492.458	7.62
492.807	7.43
493.157	7.25
493.506	7.07
493.855	6.9
494.204	6.75
494.554	6.61
494.903	6.48
495.252	6.35
495.601	6.22
495.95	6.09
496.299	5.98
496.648	5.87
496.997	5.77
497.346	5.67
497.695	5.57
498.043	5.49
498.392	5.4
498.741	5.31
499.09	5.22
499.438	5.14
499.787	5.06
500.135	4.99
500.484	4.93
500.832	4.88
501.181	4.83
501.529	4.8
501.878	4.78
502.226	4.77
502.574	4.76
502.923	4.76
503.271	4.76
503.619	4.76
503.967	4.76
504.315	4.76
504.663	4.75
505.011	4.74
505.359	4.73
505.707	4.72
506.055	4.72
506.403	4.72
506.751	4.72
507.098	4.72
507.446	4.73
507.794	4.74
508.141	4.75
508.489	4.77
508.837	4.79
509.184	4.8
509.531	4.81
509.879	4.82
510.226	4.84
510.574	4.86
510.921	4.87
511.268	4.88
511.616	4.9
511.963	4.92
512.31	4.94
512.657	4.96
513.004	4.98
513.351	5
513.698	5
514.045	5.01
514.392	5.02
514.739	5.02
515.086	5.02
515.432	5.02
515.779	5.01
516.126	5.01
516.473	5.02
516.819	5.02
517.166	5.03
517.512	5.04
517.859	5.04
518.205	5.06
518.552	5.09
518.898	5.13
519.245	5.17
519.591	5.23
519.937	5.31
520.283	5.41
520.629	5.52
520.976	5.65
521.322	5.78
521.668	5.9
522.014	6.03
522.36	6.15
522.706	6.28
523.052	6.4
523.398	6.51
523.743	6.61
524.089	6.69
524.435	6.76
524.781	6.83
525.126	6.9
525.472	6.96
525.817	7.02
526.163	7.07
526.509	7.12
526.854	7.17
527.199	7.22
527.545	7.27
527.89	7.32
528.235	7.38
528.581	7.43
528.926	7.47
529.271	7.52
529.616	7.56
529.961	7.59
530.306	7.61
530.651	7.64
530.996	7.66
531.341	7.67
531.686	7.67
532.031	7.67
532.376	7.67
532.721	7.67
533.065	7.67
533.41	7.68
533.755	7.67
534.099	7.63
534.444	7.6
534.788	7.56
535.133	7.52
535.477	7.47
535.822	7.41
536.166	7.35
536.51	7.28
536.855	7.2
537.199	7.11
537.543	7.02
537.887	6.95
538.231	6.88
538.576	6.82
538.92	6.76
539.264	6.69
539.608	6.63
539.951	6.57
540.295	6.5
540.639	6.43
540.983	6.36
541.327	6.31
541.671	6.25
542.014	6.18
542.358	6.12
542.701	6.08
543.045	6.05
543.389	6.03
543.732	6
544.075	5.99
544.419	5.97
544.762	5.94
545.105	5.93
545.449	5.92
545.792	5.92
546.135	5.92
546.478	5.9
546.821	5.88
547.165	5.84
547.508	5.8
547.851	5.74
548.194	5.69
548.536	5.62
548.879	5.55
549.222	5.47
549.565	5.39
549.908	5.32
550.25	5.25
550.593	5.18
550.936	5.14
551.278	5.1
551.621	5.06
551.963	5.04
552.306	5.02
552.648	5
552.991	4.98
553.333	4.97
553.675	4.96
554.017	4.96
554.36	4.97
554.702	4.98
555.044	4.99
555.386	5.01
555.728	5.02
556.07	5.03
556.412	5.04
556.754	5.05
557.096	5.04
557.438	5.05
557.78	5.05
558.121	5.04
558.463	5.05
558.805	5.05
559.147	5.05
559.488	5.05
559.83	5.06
560.171	5.07
560.513	5.07
560.854	5.07
561.196	5.06
561.537	5.06
561.878	5.07
562.22	5.07
562.561	5.07
562.902	5.08
563.243	5.08
563.584	5.08
563.925	5.09
564.266	5.09
564.607	5.09
564.948	5.1
565.289	5.1
565.63	5.1
565.971	5.11
566.312	5.11
566.653	5.11
566.993	5.11
567.334	5.11
567.675	5.11
568.015	5.12
568.356	5.13
568.696	5.13
569.037	5.14
569.377	5.13
569.718	5.14
570.058	5.14
570.398	5.14
570.739	5.14
571.079	5.14
571.419	5.14
571.759	5.15
572.099	5.14
572.439	5.14
572.779	5.15
573.119	5.15
573.459	5.14
573.799	5.14
574.139	5.15
574.479	5.16
574.819	5.16
575.158	5.16
575.498	5.17
575.838	5.16
576.177	5.16
576.517	5.17
576.856	5.16
577.196	5.17
577.535	5.17
577.875	5.16
578.214	5.17
578.553	5.17
578.893	5.16
579.232	5.16
579.571	5.16
579.91	5.16
580.25	5.16
580.589	5.16
580.928	5.16
581.267	5.15
581.606	5.15
581.945	5.15
582.283	5.14
582.622	5.15
582.961	5.15
583.3	5.16
583.639	5.16
583.977	5.16
584.316	5.17
584.654	5.18
584.993	5.18
585.332	5.18
585.67	5.18
586.008	5.18
586.347	5.18
586.685	5.18
587.024	5.19
587.362	5.19
587.7	5.19
588.038	5.19
588.376	5.19
588.715	5.19
589.053	5.19
589.391	5.19
589.729	5.19
590.067	5.19
590.404	5.2
590.742	5.2
591.08	5.2
591.418	5.2
591.756	5.21
592.093	5.22
592.431	5.23
592.769	5.24
593.106	5.24
593.444	5.25
593.781	5.24
594.119	5.24
594.456	5.25
594.793	5.25
595.131	5.25
595.468	5.25
595.805	5.25
596.143	5.26
596.48	5.25
596.817	5.26
597.154	5.27
597.491	5.27
597.828	5.28
598.165	5.28
598.502	5.28
598.839	5.28
599.176	5.28
599.512	5.28
599.849	5.29
600.186	5.3
600.523	5.3
600.859	5.3
601.196	5.31
601.532	5.31
601.869	5.32
602.205	5.32
602.542	5.33
602.878	5.33
603.215	5.32
603.551	5.32
603.887	5.32
604.223	5.33
604.56	5.33
604.896	5.33
605.232	5.33
605.568	5.33
605.904	5.33
606.24	5.33
606.576	5.33
606.912	5.34
607.248	5.33
607.583	5.34
607.919	5.34
608.255	5.33
608.591	5.33
608.926	5.34
609.262	5.34
609.597	5.34
609.933	5.35
610.268	5.37
610.604	5.37
610.939	5.37
611.275	5.36
611.61	5.36
611.945	5.36
612.281	5.36
612.616	5.36
612.951	5.35
613.286	5.35
613.621	5.33
613.956	5.33
614.291	5.34
614.626	5.33
614.961	5.34
615.296	5.34
615.631	5.35
615.966	5.34
616.3	5.35
616.635	5.35
616.97	5.35
617.304	5.35
617.639	5.35
617.973	5.35
618.308	5.34
618.642	5.34
618.977	5.34
619.311	5.33
619.646	5.33
619.98	5.35
620.314	5.35
620.648	5.37
620.983	5.37
621.317	5.36
621.651	5.37
621.985	5.37
622.319	5.37
622.653	5.37
622.987	5.38
623.321	5.37
623.655	5.38
623.988	5.38
624.322	5.38
624.656	5.39
624.99	5.4
625.323	5.4
625.657	5.4
625.99	5.42
626.324	5.42
626.657	5.43
626.991	5.44
627.324	5.43
627.658	5.43
627.991	5.43
628.324	5.44
628.657	5.44
628.991	5.45
629.324	5.46
629.657	5.47
629.99	5.47
630.323	5.48
630.656	5.48
630.989	5.48
631.322	5.49
631.655	5.49
631.987	5.49
632.32	5.5
632.653	5.5
632.986	5.5
633.318	5.5
633.651	5.5
633.984	5.49
634.316	5.5
634.649	5.5
634.981	5.52
635.313	5.51
635.646	5.52
635.978	5.52
636.31	5.52
636.643	5.51
636.975	5.52
637.307	5.52
637.639	5.52
637.971	5.52
638.303	5.52
638.635	5.52
638.967	5.52
639.299	5.52
639.631	5.53
639.963	5.53
640.295	5.54
640.626	5.55
640.958	5.57
641.29	5.57
641.621	5.57
641.953	5.58
642.285	5.59
642.616	5.6
642.948	5.59
643.279	5.6
643.61	5.6
643.942	5.59
644.273	5.59
644.604	5.59
644.936	5.59
645.267	5.6
645.598	5.61
645.929	5.62
646.26	5.62
646.591	5.62
646.922	5.63
647.253	5.63
647.584	5.63
647.915	5.64
648.245	5.65
648.576	5.65
648.907	5.64
649.238	5.64
649.568	5.63
649.899	5.64
650.229	5.65
650.56	5.65
650.89	5.67
651.221	5.68
651.551	5.68
651.882	5.69
652.212	5.69
652.542	5.69
652.872	5.69
653.203	5.71
653.533	5.71
653.863	5.71
654.193	5.71
654.523	5.7
654.853	5.7
655.183	5.71
655.513	5.71
655.843	5.72
656.172	5.72
656.502	5.72
656.832	5.71
657.162	5.71
657.491	5.71
657.821	5.71
658.15	5.71
658.48	5.71
658.809	5.7
659.139	5.7
659.468	5.71
659.798	5.72
660.127	5.72
660.456	5.75
660.785	5.76
661.115	5.78
661.444	5.78
661.773	5.8
662.102	5.8
662.431	5.81
662.76	5.82
663.089	5.82
663.418	5.83
663.747	5.83
664.076	5.83
664.404	5.83
664.733	5.84
665.062	5.86
665.39	5.87
665.719	5.87
666.048	5.87
666.376	5.87
666.705	5.86
667.033	5.85
667.362	5.84
667.69	5.85
668.018	5.85
668.347	5.86
668.675	5.84
669.003	5.85
669.331	5.84
669.659	5.84
669.987	5.87
670.315	5.87
670.643	5.89
670.971	5.9
671.299	5.9
671.627	5.9
671.955	5.9
672.283	5.9
672.61	5.92
672.938	5.93
673.266	5.95
673.593	5.95
673.921	5.96
674.249	5.97
674.576	5.97
674.904	5.98
675.231	5.98
675.558	6
675.886	6.02
676.213	6.02
676.54	6.03
676.867	6.03
677.195	6.05
677.522	6.06
677.849	6.08
678.176	6.09
678.503	6.1
678.83	6.1
679.157	6.11
679.484	6.1
679.81	6.1
680.137	6.11
680.464	6.1
680.791	6.1
681.117	6.09
681.444	6.08
681.771	6.09
682.097	6.09
682.424	6.08
682.75	6.08
683.077	6.08
683.403	6.08
683.729	6.07
684.056	6.08
684.382	6.08
684.708	6.07
685.034	6.09
685.36	6.08
685.686	6.1
686.012	6.12
686.339	6.13
686.664	6.14
686.99	6.14
687.316	6.15
687.642	6.17
687.968	6.2
688.294	6.21
688.619	6.21
688.945	6.22
689.271	6.21
689.596	6.22
689.922	6.25
690.247	6.24
690.573	6.25
690.898	6.27
691.224	6.26
691.549	6.26
691.874	6.25
692.2	6.27
692.525	6.28
692.85	6.26
693.175	6.26
693.5	6.29
693.825	6.3
694.15	6.29
694.475	6.3
694.8	6.3
695.125	6.31
695.45	6.33
695.775	6.34
696.099	6.34
696.424	6.35
696.749	6.35
697.073	6.36
697.398	6.36
697.723	6.36
698.047	6.37
698.372	6.38
698.696	6.36
699.02	6.37
699.345	6.36
699.669	6.38
699.993	6.37
700.318	6.36
700.642	6.35
700.966	6.35
701.29	6.34
701.614	6.35
701.938	6.35
702.262	6.37
702.586	6.37
702.91	6.38
703.234	6.39
703.557	6.39
703.881	6.37
704.205	6.4
704.529	6.44
704.852	6.43
705.176	6.44
705.499	6.47
705.823	6.49
706.146	6.5
706.47	6.51
706.793	6.53
707.117	6.66
707.44	6.68
707.763	6.65
708.086	6.66
708.409	6.65
708.733	6.64
709.056	6.65
709.379	6.65
709.702	6.69
710.025	6.69
710.348	6.53
710.671	6.53
710.993	6.53
711.316	6.52
711.639	6.54
711.962	6.55
712.284	6.57
712.607	6.58
712.93	6.58
713.252	6.6
713.575	6.59
713.897	6.57
714.22	6.59
714.542	6.63
714.864	6.69
715.187	6.72
715.509	6.73
715.831	6.72
716.153	6.73
716.475	6.71
716.798	6.71
717.12	6.9
717.442	6.91
717.764	6.88
718.085	6.82
718.407	6.82
718.729	6.8
719.051	6.81
719.373	6.82
719.695	6.82
720.016	6.8
720.338	6.73
720.659	6.76
720.981	6.78
721.302	6.78
721.624	6.81
721.945	6.79
722.267	6.78
722.588	6.78
722.909	6.8
723.231	6.82
723.552	6.84
723.873	6.87
724.194	6.89
724.515	6.91
724.836	7.03
725.157	7.03
725.478	7.03
725.799	7.05
726.12	7.05
726.441	7.06
726.762	7.09
727.083	7.09
727.403	7.08
727.724	7.06
728.045	6.99
728.365	6.99
728.686	7.05
729.006	7.06
729.327	7.07
729.647	7.06
729.967	7.05
730.288	7.06
730.608	7.07
730.928	7.08
731.249	7.08
731.569	7.09
731.889	7.11
732.209	7.12
732.529	7.13
732.849	7.16
733.169	7.17
733.489	7.16
733.809	7.17
734.129	7.2
734.448	7.23
734.768	7.22
735.088	7.24
735.408	7.27
735.727	7.28
736.047	7.32
736.366	7.33
736.686	7.35
737.005	7.35
737.325	7.33
737.644	7.33
737.963	7.32
738.283	7.33
738.602	7.34
738.921	7.34
739.24	7.34
739.56	7.34
739.879	7.36
740.198	7.38
740.517	7.39
740.836	7.38
741.155	7.36
741.473	7.43
741.792	7.42
742.111	7.44
742.43	7.45
742.748	7.45
743.067	7.44
743.386	7.46
743.704	7.46
744.023	7.53
744.341	7.51
744.66	7.54
744.978	7.47
745.297	7.48
745.615	7.47
745.933	7.46
746.252	7.45
746.57	7.39
746.888	7.38
747.206	7.35
747.524	7.34
747.842	7.38
748.16	7.37
748.478	7.36
748.796	7.33
749.114	7.28
749.432	7.3
749.749	7.34
750.067	7.32
750.385	7.33
750.703	7.33
751.02	7.31
751.338	7.32
751.655	7.39
751.973	7.39
752.29	7.41
752.608	7.45
752.925	7.45
753.242	7.54
753.56	7.58
753.877	7.59
754.194	7.66
754.511	7.61
754.828	7.62
755.145	7.65
755.462	7.67
755.779	7.69
756.096	7.74
756.413	7.74
756.73	7.72
757.047	7.7
757.364	7.72
757.68	7.77
757.997	7.78
758.314	7.79
758.63	7.81
758.947	7.87
759.264	7.86
759.58	7.87
759.896	7.85
760.213	7.89
760.529	7.89
760.846	7.85
761.162	7.86
761.478	7.86
761.794	7.85
762.11	7.87
762.426	7.88
762.743	7.86
763.059	7.94
763.375	7.97
763.69	7.99
764.006	8
764.322	8.02
764.638	8.02
764.954	8.06
765.27	8.08
765.585	8.06
765.901	8.09
766.216	7.93
766.532	7.89
766.848	7.88
767.163	7.93
767.478	8
767.794	8.01
768.109	8.01
768.424	8.04
768.74	8.05
769.055	8.04
769.37	8.09
769.685	8.1
770	8.12
770.315	8.17
770.63	8.06
770.945	8.01
771.26	8.01
771.575	7.99
771.89	7.97
772.205	8.01
772.52	8.01
772.834	8.23
773.149	8.27
773.464	8.22
773.778	8.21
774.093	8.26
774.407	8.29
774.722	8.31
775.036	8.27
775.351	8.27
775.665	8.28
775.979	8.14
776.293	8.12
776.608	8.16
776.922	8.16
777.236	8.25
777.55	8.35
777.864	8.34
778.178	8.38
778.492	8.34
778.806	8.31
779.12	8.38
779.434	8.44
779.747	8.43
780.061	8.54
780.375	8.5
780.689	8.45
781.002	8.49
781.316	8.46
781.629	8.54
781.943	8.6
782.256	8.61
782.57	8.65
782.883	8.62
783.196	8.56
783.51	8.64
783.823	8.68
784.136	8.66
784.449	8.71
784.762	8.71
785.075	8.79
785.388	8.74
785.701	8.72
786.014	8.7
786.327	8.75
786.64	8.73
786.953	8.73
787.266	8.81
787.578	8.81
787.891	8.87
788.204	8.85
788.516	8.85
788.829	8.91
789.141	8.85
789.454	8.85
789.766	8.88
790.079	8.87
790.391	8.85
790.703	8.99
791.016	8.88
791.328	8.92
791.64	8.96
791.952	9.02
792.264	9.03
792.576	9.02
792.888	8.99
793.2	8.96
793.512	9.01
793.824	8.9
794.136	8.92
794.448	8.94
794.76	8.97
795.071	9.01
795.383	9.05
795.695	9.23
796.006	9.31
796.318	9.32
796.629	9.34
796.941	9.32
797.252	9.32
797.564	9.41
797.875	9.35
798.186	9.32
798.497	9.34
798.809	9.25
799.12	9.26
799.431	9.25
799.742	9.27
800.053	9.23
800.364	9.34
800.675	9.37
800.986	9.38
801.297	9.5
801.608	9.5
801.918	9.58
802.229	9.6
802.54	9.58
802.851	9.58
803.161	9.59
803.472	9.59
803.782	9.54
804.093	9.6
804.403	9.48
804.714	9.54
805.024	9.54
805.334	9.69
805.645	9.69
805.955	9.78
806.265	9.75
806.575	9.82
806.885	9.74
807.195	9.75
807.505	9.75
807.815	9.66
808.125	9.69
808.435	9.64
808.745	9.59
809.055	9.61
809.365	9.66
809.674	9.73
809.984	9.77
810.294	9.84
810.603	9.83
810.913	10.06
811.222	9.98
811.532	10.05
811.841	10.08
812.151	10.21
812.46	10.23
812.769	10.28
813.079	10.31
813.388	10.33
813.697	10.31
814.006	10.25
814.315	10.3
814.624	10.3
814.933	10.26
815.242	10.2
815.551	10.23
815.86	10.14
816.169	10.07
816.478	10.07
816.786	10.05
817.095	10.03
817.404	10.03
817.712	10.05
818.021	9.97
818.33	9.99
818.638	10.01
818.947	10.01
819.255	10.01
819.563	10.02
819.872	10.01
820.18	10.04
820.488	10.06
820.796	10.03
821.105	10.03
821.413	10.06
821.721	10.08
822.029	10.09
822.337	10.11
822.645	10.1
822.953	10.05
823.26	10.08
823.568	10.09
823.876	10.07
824.184	10.07
824.491	10.06
824.799	10.06
825.107	10.06
825.414	10.06
825.722	10.06
826.029	10.04
826.337	10.05
826.644	10.05
826.951	10.07
827.259	10.08
827.566	10.13
827.873	10.16
828.18	10.14
828.488	10.15
828.795	10.18
829.102	10.19
829.409	10.22
829.716	10.26
830.023	10.28
830.329	10.32
830.636	10.38
830.943	10.46
831.25	10.5
831.557	10.49
831.863	10.54
832.17	10.57
832.476	10.6
832.783	10.6
833.089	10.64
833.396	10.6
833.702	10.6
834.009	10.52
834.315	10.54
834.621	10.64
834.928	10.66
835.234	10.72
835.54	10.75
835.846	10.8
836.152	10.82
836.458	10.85
836.764	10.85
837.07	10.86
837.376	10.79
837.682	10.7
837.988	10.77
838.293	10.67
838.599	10.71
838.905	10.73
839.211	10.82
839.516	10.87
839.822	10.96
840.127	10.92
840.433	10.99
840.738	11.03
841.044	11.09
841.349	11.17
841.654	11.25
841.959	11.27
842.265	11.27
842.57	11.21
842.875	11.21
843.18	11.31
843.485	11.4
843.79	11.51
844.095	11.7
844.4	11.58
844.705	11.82
845.01	11.88
845.315	11.87
845.619	11.79
845.924	11.78
846.229	11.63
846.533	11.81
846.838	11.77
847.142	11.58
847.447	11.68
847.751	11.45
848.056	11.51
848.36	11.52
848.664	11.49
848.969	11.45
849.273	11.37
849.577	11.28
849.881	11.14
850.185	11.22
850.489	11.58
850.794	11.88
851.097	11.82
851.401	11.87
851.705	11.98
852.009	11.97
852.313	11.98
852.617	12.1
852.92	12.03
853.224	11.99
853.528	11.85
853.831	11.73
854.135	11.58
854.438	11.56
854.742	11.7
855.045	11.81
855.349	12.07
855.652	12.32
855.955	12.34
856.259	12.47
856.562	12.65
856.865	12.54
857.168	12.56
857.471	12.52
857.774	12.52
858.077	12.24
858.38	12.23
858.683	12.16
858.986	11.99
859.289	12.36
859.592	12.44
859.894	12.75
860.197	12.95
860.5	13.04
860.802	13.15
861.105	13.05
861.407	13.23
861.71	13.27
862.012	13.38
862.315	13.56
862.617	13.42
862.919	12.92
863.222	13.09
863.524	13.23
863.826	13.41
864.128	13.52
864.43	13.6
864.732	13.58
865.034	13.67
865.336	13.81
865.638	13.69
865.94	13.47
866.242	13.51
866.544	13.07
866.846	13.45
867.147	13.03
867.449	12.93
867.751	13.05
868.052	13.01
868.354	12.68
868.655	12.66
868.957	12.78
869.258	13.06
869.56	12.94
869.861	13.12
870.162	12.95
870.463	12.96
870.765	13.08
871.066	13.06
871.367	12.97
871.668	13.07
871.969	13.17
872.27	13.11
872.571	13.2
872.872	13.52
873.173	13.31
873.473	13.66
873.774	13.82
874.075	13.73
874.376	13.84
874.676	13.81
874.977	13.75
875.277	13.65
875.578	13.48
875.878	13.15
876.179	13.23
876.479	13.01
876.78	13.07
877.08	13.04
877.38	13.2
877.68	13.03
877.981	12.99
878.281	13.16
878.581	13.16
