Data from UWBM12228_Reflection_00012.txt Node
Date: Sun May 02 12:54:33 EDT 2021
User: vgr7
Spectrometer: USB2G7710
Scans to average: 10
Trigger mode: 4
Integration Time (sec): 1.000000E-1
Electric dark correction enabled: true
Boxcar width: 20
XAxis mode: Wavelengths
Number of Pixels in Spectrum: 2048
>>>>>Begin Spectral Data<<<<<
177.721	99.13
178.105	98.9
178.488	97.31
178.871	96.64
179.254	96.35
179.636	93.97
180.019	92.62
180.402	91.11
180.785	90.33
181.168	88.76
181.55	86.05
181.933	112.27
182.316	112.28
182.698	113.8
183.081	114.12
183.463	115.23
183.846	117.7
184.228	118.43
184.611	118.64
184.993	120.89
185.376	122.34
185.758	-59.34
186.14	-17.2
186.522	0.51
186.904	10.91
187.287	18.94
187.669	21.93
188.051	22.59
188.433	26.71
188.815	23.61
189.197	22.9
189.579	23.38
189.961	24.97
190.342	22.76
190.724	24.87
191.106	25.01
191.488	22.81
191.869	19.64
192.251	20.02
192.633	18.32
193.014	18.9
193.396	15.51
193.777	21.69
194.159	22.88
194.54	21.71
194.922	21.5
195.303	23.27
195.684	24.22
196.065	24.13
196.447	19.98
196.828	18.19
197.209	18.94
197.59	7.31
197.971	5.7
198.352	7.46
198.733	9.8
199.114	7.27
199.495	7.98
199.876	7.06
200.257	4.26
200.638	3.35
201.018	-3.14
201.399	-3.36
201.78	-4.83
202.16	-3.5
202.541	-2.31
202.922	-2.09
203.302	-4.65
203.683	-6.76
204.063	-7.62
204.444	-5.58
204.824	-2.37
205.204	-0.37
205.585	6.96
205.965	5.74
206.345	7.32
206.725	3.37
207.106	4.64
207.486	5.03
207.866	3.94
208.246	2.99
208.626	4.55
209.006	10.09
209.386	5.1
209.766	5.71
210.145	4.79
210.525	3.73
210.905	5.52
211.285	4.2
211.664	3.24
212.044	6.2
212.424	7.21
212.803	2.51
213.183	5.82
213.562	6.07
213.942	4.18
214.321	0.37
214.701	0.34
215.08	1.35
215.459	3.21
215.838	3.05
216.218	3.25
216.597	2.04
216.976	-0.31
217.355	-0.12
217.734	0.72
218.113	0.53
218.492	1.11
218.871	1.39
219.25	3.39
219.629	2.33
220.008	2.4
220.387	2.63
220.766	3.07
221.144	2.93
221.523	5.43
221.902	5.67
222.28	6.61
222.659	7.43
223.037	6.76
223.416	7.87
223.794	9
224.173	8.97
224.551	9.24
224.929	9.64
225.308	10.24
225.686	10.2
226.064	9.96
226.442	9.33
226.821	9.38
227.199	9.05
227.577	8.38
227.955	7.52
228.333	7.27
228.711	7.39
229.089	7.66
229.467	7.37
229.845	7.91
230.222	8.06
230.6	8.3
230.978	7.82
231.356	7.38
231.733	7.33
232.111	7.36
232.488	6.94
232.866	6.71
233.243	6.24
233.621	6.34
233.998	6.27
234.376	6.21
234.753	6.11
235.13	6.11
235.508	6.54
235.885	6.48
236.262	6.44
236.639	6.46
237.016	6.33
237.393	6.23
237.77	5.98
238.147	5.89
238.524	5.85
238.901	5.83
239.278	5.79
239.655	5.74
240.032	5.58
240.409	5.54
240.785	5.48
241.162	5.47
241.539	5.46
241.915	5.51
242.292	5.48
242.668	5.41
243.045	5.41
243.421	5.34
243.798	5.34
244.174	5.29
244.551	5.23
244.927	5.06
245.303	4.99
245.679	5
246.056	4.95
246.432	4.95
246.808	4.76
247.184	4.77
247.56	4.73
247.936	4.72
248.312	4.72
248.688	4.77
249.064	4.73
249.44	4.68
249.815	4.67
250.191	4.63
250.567	4.62
250.943	4.69
251.318	4.67
251.694	4.61
252.069	4.53
252.445	4.52
252.82	4.62
253.196	4.64
253.571	4.6
253.947	4.69
254.322	4.63
254.697	4.77
255.073	4.74
255.448	4.73
255.823	4.7
256.198	4.64
256.573	4.47
256.948	4.45
257.323	4.43
257.698	4.37
258.073	4.38
258.448	4.26
258.823	4.24
259.198	4.21
259.573	4.23
259.948	4.27
260.322	4.23
260.697	4.23
261.072	4.22
261.446	4.19
261.821	4.15
262.195	4.1
262.57	4.07
262.944	4.07
263.319	4.06
263.693	4.08
264.067	4.09
264.442	4.17
264.816	4.16
265.19	4.15
265.564	4.19
265.938	4.15
266.313	4.19
266.687	4.14
267.061	4.13
267.435	4.13
267.809	4.12
268.183	4.09
268.556	4.1
268.93	4.1
269.304	4.07
269.678	4.05
270.051	4.02
270.425	4
270.799	4.01
271.172	4.01
271.546	4.01
271.919	4.02
272.293	4.01
272.666	4.02
273.04	4.04
273.413	3.96
273.787	3.94
274.16	3.94
274.533	3.98
274.906	3.94
275.279	3.96
275.653	3.95
276.026	3.94
276.399	3.9
276.772	3.9
277.145	3.94
277.518	3.95
277.891	3.98
278.263	3.97
278.636	3.98
279.009	3.99
279.382	3.98
279.755	3.95
280.127	3.97
280.5	3.96
280.872	3.95
281.245	4.05
281.617	4.06
281.99	4.1
282.362	4.12
282.735	4.11
283.107	4.1
283.479	4.12
283.852	4.12
284.224	4.14
284.596	4.12
284.968	4.01
285.34	4
285.713	3.99
286.085	3.92
286.457	3.93
286.829	3.91
287.201	3.91
287.572	3.96
287.944	3.96
288.316	4
288.688	4.06
289.06	4.05
289.431	4.06
289.803	4.06
290.175	4.08
290.546	4.11
290.918	4.13
291.289	4.11
291.661	4.14
292.032	4.1
292.403	4.12
292.775	4.23
293.146	4.23
293.517	4.28
293.889	4.35
294.26	4.35
294.631	4.38
295.002	4.42
295.373	4.45
295.744	4.48
296.115	4.49
296.486	4.45
296.857	4.47
297.228	4.48
297.599	4.5
297.97	4.52
298.34	4.55
298.711	4.51
299.082	4.53
299.452	4.58
299.823	4.63
300.194	4.67
300.564	4.69
300.935	4.73
301.305	4.75
301.676	4.75
302.046	4.8
302.416	4.82
302.787	4.86
303.157	4.84
303.527	4.87
303.897	4.9
304.267	4.96
304.637	5
305.008	5.06
305.378	5.11
305.748	5.13
306.117	5.23
306.487	5.33
306.857	5.43
307.227	5.49
307.597	5.53
307.967	5.56
308.336	5.61
308.706	5.67
309.076	5.7
309.445	5.74
309.815	5.68
310.184	5.73
310.554	5.72
310.923	5.79
311.293	5.85
311.662	5.9
312.031	5.93
312.401	5.96
312.77	5.98
313.139	6.01
313.508	6.07
313.877	6.04
314.246	6.08
314.616	6.09
314.985	6.09
315.353	6.13
315.722	6.18
316.091	6.23
316.46	6.29
316.829	6.36
317.198	6.42
317.567	6.62
317.935	6.67
318.304	6.77
318.672	6.86
319.041	6.93
319.41	6.99
319.778	7.07
320.147	7.14
320.515	7.18
320.883	7.23
321.252	7.22
321.62	7.31
321.988	7.37
322.357	7.43
322.725	7.54
323.093	7.6
323.461	7.64
323.829	7.69
324.197	7.73
324.565	7.77
324.933	7.81
325.301	7.83
325.669	7.88
326.037	7.92
326.405	7.91
326.772	7.94
327.14	7.96
327.508	8
327.875	8.04
328.243	8.09
328.61	8.09
328.978	8.14
329.346	8.18
329.713	8.2
330.08	8.24
330.448	8.27
330.815	8.27
331.182	8.31
331.55	8.33
331.917	8.38
332.284	8.41
332.651	8.45
333.018	8.48
333.385	8.51
333.752	8.56
334.119	8.61
334.486	8.66
334.853	8.67
335.22	8.72
335.587	8.74
335.954	8.78
336.32	8.84
336.687	8.85
337.054	8.87
337.42	8.91
337.787	8.92
338.153	8.96
338.52	9.03
338.886	9.07
339.253	9.08
339.619	9.11
339.986	9.12
340.352	9.13
340.718	9.17
341.084	9.19
341.451	9.2
341.817	9.21
342.183	9.22
342.549	9.26
342.915	9.28
343.281	9.32
343.647	9.35
344.013	9.4
344.379	9.42
344.745	9.44
345.11	9.46
345.476	9.5
345.842	9.53
346.208	9.52
346.573	9.53
346.939	9.55
347.304	9.56
347.67	9.57
348.035	9.6
348.401	9.6
348.766	9.61
349.132	9.62
349.497	9.64
349.862	9.66
350.228	9.67
350.593	9.68
350.958	9.67
351.323	9.66
351.688	9.68
352.053	9.66
352.418	9.66
352.783	9.66
353.148	9.65
353.513	9.63
353.878	9.63
354.243	9.62
354.608	9.6
354.972	9.6
355.337	9.6
355.702	9.57
356.066	9.56
356.431	9.54
356.795	9.52
357.16	9.49
357.524	9.47
357.889	9.45
358.253	9.43
358.618	9.42
358.982	9.41
359.346	9.4
359.71	9.4
360.075	9.38
360.439	9.36
360.803	9.33
361.167	9.31
361.531	9.31
361.895	9.29
362.259	9.27
362.623	9.24
362.987	9.21
363.351	9.19
363.714	9.17
364.078	9.14
364.442	9.11
364.806	9.09
365.169	9.05
365.533	9.01
365.896	8.98
366.26	8.95
366.623	8.9
366.987	8.86
367.35	8.83
367.714	8.8
368.077	8.76
368.44	8.72
368.803	8.68
369.167	8.64
369.53	8.61
369.893	8.57
370.256	8.52
370.619	8.48
370.982	8.43
371.345	8.38
371.708	8.34
372.071	8.3
372.434	8.26
372.797	8.23
373.159	8.2
373.522	8.15
373.885	8.09
374.247	8.03
374.61	7.97
374.973	7.92
375.335	7.86
375.698	7.81
376.06	7.76
376.423	7.7
376.785	7.65
377.147	7.59
377.51	7.55
377.872	7.5
378.234	7.45
378.596	7.42
378.958	7.38
379.321	7.34
379.683	7.29
380.045	7.24
380.407	7.2
380.769	7.15
381.13	7.11
381.492	7.08
381.854	7.04
382.216	7
382.578	6.96
382.939	6.93
383.301	6.88
383.663	6.85
384.024	6.8
384.386	6.76
384.747	6.72
385.109	6.67
385.47	6.63
385.832	6.6
386.193	6.56
386.554	6.52
386.916	6.49
387.277	6.45
387.638	6.42
387.999	6.39
388.36	6.36
388.721	6.33
389.082	6.3
389.443	6.27
389.804	6.25
390.165	6.22
390.526	6.19
390.887	6.16
391.248	6.12
391.609	6.1
391.969	6.06
392.33	6.04
392.691	6.01
393.051	5.98
393.412	5.94
393.772	5.92
394.133	5.9
394.493	5.86
394.854	5.84
395.214	5.8
395.574	5.76
395.935	5.73
396.295	5.69
396.655	5.66
397.015	5.63
397.376	5.58
397.736	5.56
398.096	5.52
398.456	5.5
398.816	5.48
399.176	5.44
399.535	5.41
399.895	5.39
400.255	5.36
400.615	5.33
400.975	5.31
401.334	5.28
401.694	5.25
402.054	5.23
402.413	5.18
402.773	5.16
403.132	5.15
403.492	5.12
403.851	5.1
404.211	5.08
404.57	5.07
404.929	5.06
405.288	5.04
405.648	5.03
406.007	5.01
406.366	5.01
406.725	5
407.084	4.98
407.443	4.97
407.802	4.95
408.161	4.93
408.52	4.91
408.879	4.9
409.238	4.88
409.596	4.87
409.955	4.87
410.314	4.86
410.673	4.84
411.031	4.84
411.39	4.83
411.748	4.83
412.107	4.82
412.465	4.82
412.824	4.83
413.182	4.84
413.54	4.85
413.899	4.86
414.257	4.88
414.615	4.9
414.974	4.92
415.332	4.95
415.69	4.98
416.048	4.99
416.406	5.03
416.764	5.05
417.122	5.07
417.48	5.09
417.838	5.11
418.195	5.12
418.553	5.13
418.911	5.14
419.269	5.13
419.626	5.11
419.984	5.09
420.342	5.06
420.699	5.04
421.057	5
421.414	4.98
421.772	4.96
422.129	4.94
422.486	4.93
422.844	4.92
423.201	4.91
423.558	4.9
423.915	4.89
424.273	4.88
424.63	4.87
424.987	4.86
425.344	4.85
425.701	4.84
426.058	4.83
426.415	4.82
426.772	4.81
427.128	4.8
427.485	4.78
427.842	4.76
428.199	4.74
428.555	4.71
428.912	4.69
429.269	4.65
429.625	4.63
429.982	4.6
430.338	4.56
430.695	4.53
431.051	4.49
431.407	4.46
431.764	4.44
432.12	4.41
432.476	4.39
432.832	4.38
433.189	4.38
433.545	4.38
433.901	4.39
434.257	4.41
434.613	4.44
434.969	4.46
435.325	4.49
435.681	4.53
436.036	4.54
436.392	4.56
436.748	4.56
437.104	4.57
437.459	4.58
437.815	4.6
438.171	4.62
438.526	4.64
438.882	4.67
439.237	4.7
439.593	4.73
439.948	4.76
440.304	4.8
440.659	4.82
441.014	4.83
441.369	4.86
441.725	4.87
442.08	4.89
442.435	4.89
442.79	4.9
443.145	4.89
443.5	4.89
443.855	4.89
444.21	4.88
444.565	4.87
444.92	4.86
445.275	4.85
445.629	4.84
445.984	4.83
446.339	4.82
446.693	4.81
447.048	4.79
447.403	4.77
447.757	4.74
448.112	4.71
448.466	4.69
448.82	4.67
449.175	4.65
449.529	4.63
449.883	4.61
450.238	4.58
450.592	4.58
450.946	4.57
451.3	4.56
451.654	4.57
452.008	4.56
452.362	4.56
452.716	4.56
453.07	4.56
453.424	4.54
453.778	4.53
454.132	4.51
454.486	4.5
454.839	4.48
455.193	4.45
455.547	4.44
455.9	4.4
456.254	4.38
456.607	4.35
456.961	4.32
457.314	4.3
457.668	4.29
458.021	4.29
458.375	4.28
458.728	4.29
459.081	4.29
459.434	4.3
459.787	4.31
460.141	4.32
460.494	4.32
460.847	4.33
461.2	4.34
461.553	4.35
461.906	4.36
462.259	4.36
462.611	4.37
462.964	4.38
463.317	4.39
463.67	4.39
464.022	4.4
464.375	4.4
464.728	4.41
465.08	4.41
465.433	4.42
465.785	4.42
466.138	4.41
466.49	4.4
466.843	4.39
467.195	4.38
467.547	4.37
467.899	4.35
468.252	4.33
468.604	4.31
468.956	4.3
469.308	4.29
469.66	4.3
470.012	4.3
470.364	4.31
470.716	4.32
471.068	4.35
471.42	4.38
471.772	4.4
472.123	4.42
472.475	4.44
472.827	4.45
473.178	4.47
473.53	4.48
473.882	4.5
474.233	4.52
474.585	4.56
474.936	4.62
475.288	4.72
475.639	4.84
475.99	4.98
476.342	5.14
476.693	5.31
477.044	5.48
477.395	5.65
477.746	5.83
478.097	6.01
478.448	6.19
478.8	6.37
479.15	6.53
479.501	6.68
479.852	6.82
480.203	6.94
480.554	7.07
480.905	7.19
481.255	7.3
481.606	7.4
481.957	7.49
482.307	7.59
482.658	7.68
483.009	7.76
483.359	7.84
483.709	7.92
484.06	7.99
484.41	8.07
484.761	8.14
485.111	8.21
485.461	8.27
485.811	8.33
486.162	8.38
486.512	8.43
486.862	8.47
487.212	8.49
487.562	8.51
487.912	8.52
488.262	8.53
488.612	8.53
488.961	8.51
489.311	8.47
489.661	8.4
490.011	8.31
490.36	8.2
490.71	8.07
491.06	7.94
491.409	7.79
491.759	7.64
492.108	7.49
492.458	7.33
492.807	7.17
493.157	7
493.506	6.85
493.855	6.7
494.204	6.56
494.554	6.44
494.903	6.32
495.252	6.22
495.601	6.11
495.95	6.01
496.299	5.92
496.648	5.84
496.997	5.76
497.346	5.69
497.695	5.62
498.043	5.57
498.392	5.51
498.741	5.45
499.09	5.4
499.438	5.35
499.787	5.31
500.135	5.28
500.484	5.25
500.832	5.25
501.181	5.24
501.529	5.25
501.878	5.28
502.226	5.31
502.574	5.36
502.923	5.4
503.271	5.45
503.619	5.51
503.967	5.57
504.315	5.62
504.663	5.67
505.011	5.72
505.359	5.78
505.707	5.84
506.055	5.9
506.403	5.97
506.751	6.03
507.098	6.1
507.446	6.18
507.794	6.26
508.141	6.35
508.489	6.45
508.837	6.54
509.184	6.63
509.531	6.72
509.879	6.82
510.226	6.92
510.574	7.03
510.921	7.14
511.268	7.25
511.616	7.36
511.963	7.49
512.31	7.61
512.657	7.74
513.004	7.86
513.351	7.97
513.698	8.08
514.045	8.18
514.392	8.28
514.739	8.37
515.086	8.46
515.432	8.55
515.779	8.64
516.126	8.74
516.473	8.85
516.819	8.96
517.166	9.09
517.512	9.22
517.859	9.36
518.205	9.51
518.552	9.68
518.898	9.88
519.245	10.1
519.591	10.37
519.937	10.68
520.283	11.06
520.629	11.46
520.976	11.89
521.322	12.34
521.668	12.79
522.014	13.24
522.36	13.69
522.706	14.14
523.052	14.58
523.398	15
523.743	15.39
524.089	15.75
524.435	16.08
524.781	16.41
525.126	16.74
525.472	17.07
525.817	17.39
526.163	17.71
526.509	18.01
526.854	18.32
527.199	18.64
527.545	18.95
527.89	19.27
528.235	19.59
528.581	19.9
528.926	20.19
529.271	20.48
529.616	20.74
529.961	20.98
530.306	21.21
530.651	21.43
530.996	21.64
531.341	21.84
531.686	22.03
532.031	22.22
532.376	22.43
532.721	22.65
533.065	22.91
533.41	23.17
533.755	23.42
534.099	23.64
534.444	23.85
534.788	24.04
535.133	24.22
535.477	24.4
535.822	24.55
536.166	24.67
536.51	24.76
536.855	24.81
537.199	24.83
537.543	24.86
537.887	24.9
538.231	24.97
538.576	25.04
538.92	25.1
539.264	25.16
539.608	25.2
539.951	25.24
540.295	25.26
540.639	25.28
540.983	25.28
541.327	25.28
541.671	25.29
542.014	25.3
542.358	25.33
542.701	25.43
543.045	25.54
543.389	25.69
543.732	25.84
544.075	26.02
544.419	26.21
544.762	26.4
545.105	26.62
545.449	26.84
545.792	27.08
546.135	27.31
546.478	27.51
546.821	27.68
547.165	27.8
547.508	27.88
547.851	27.93
548.194	27.95
548.536	27.94
548.879	27.9
549.222	27.84
549.565	27.78
549.908	27.73
550.25	27.71
550.593	27.72
550.936	27.79
551.278	27.89
551.621	28.04
551.963	28.19
552.306	28.37
552.648	28.58
552.991	28.8
553.333	29.05
553.675	29.32
554.017	29.62
554.36	29.95
554.702	30.3
555.044	30.69
555.386	31.12
555.728	31.52
556.07	31.89
556.412	32.27
556.754	32.54
557.096	32.82
557.438	33.11
557.78	33.4
558.121	33.68
558.463	33.97
558.805	34.25
559.147	34.54
559.488	34.82
559.83	35.09
560.171	35.38
560.513	35.65
560.854	35.92
561.196	36.17
561.537	36.44
561.878	36.69
562.22	36.93
562.561	37.18
562.902	37.43
563.243	37.67
563.584	37.91
563.925	38.15
564.266	38.39
564.607	38.62
564.948	38.87
565.289	39.09
565.63	39.31
565.971	39.53
566.312	39.76
566.653	39.97
566.993	40.18
567.334	40.38
567.675	40.58
568.015	40.78
568.356	40.97
568.696	41.17
569.037	41.34
569.377	41.5
569.718	41.67
570.058	41.83
570.398	41.98
570.739	42.14
571.079	42.29
571.419	42.42
571.759	42.56
572.099	42.69
572.439	42.81
572.779	42.96
573.119	43.08
573.459	43.19
573.799	43.32
574.139	43.45
574.479	43.58
574.819	43.7
575.158	43.82
575.498	43.93
575.838	44.05
576.177	44.17
576.517	44.27
576.856	44.38
577.196	44.48
577.535	44.58
577.875	44.68
578.214	44.78
578.553	44.88
578.893	44.97
579.232	45.07
579.571	45.17
579.91	45.26
580.25	45.35
580.589	45.45
580.928	45.53
581.267	45.62
581.606	45.71
581.945	45.82
582.283	45.91
582.622	45.99
582.961	46.1
583.3	46.21
583.639	46.31
583.977	46.41
584.316	46.51
584.654	46.61
584.993	46.7
585.332	46.8
585.67	46.91
586.008	47.01
586.347	47.1
586.685	47.19
587.024	47.29
587.362	47.38
587.7	47.48
588.038	47.56
588.376	47.66
588.715	47.75
589.053	47.86
589.391	47.96
589.729	48.06
590.067	48.15
590.404	48.24
590.742	48.33
591.08	48.43
591.418	48.53
591.756	48.61
592.093	48.7
592.431	48.78
592.769	48.86
593.106	48.94
593.444	49
593.781	49.06
594.119	49.13
594.456	49.19
594.793	49.27
595.131	49.33
595.468	49.39
595.805	49.45
596.143	49.52
596.48	49.59
596.817	49.66
597.154	49.74
597.491	49.82
597.828	49.9
598.165	49.98
598.502	50.05
598.839	50.13
599.176	50.2
599.512	50.26
599.849	50.32
600.186	50.37
600.523	50.43
600.859	50.48
601.196	50.52
601.532	50.58
601.869	50.64
602.205	50.7
602.542	50.75
602.878	50.8
603.215	50.84
603.551	50.87
603.887	50.92
604.223	50.96
604.56	51.01
604.896	51.05
605.232	51.09
605.568	51.13
605.904	51.17
606.24	51.21
606.576	51.23
606.912	51.27
607.248	51.3
607.583	51.34
607.919	51.38
608.255	51.42
608.591	51.45
608.926	51.48
609.262	51.51
609.597	51.54
609.933	51.58
610.268	51.61
610.604	51.63
610.939	51.64
611.275	51.65
611.61	51.66
611.945	51.67
612.281	51.68
612.616	51.7
612.951	51.71
613.286	51.73
613.621	51.74
613.956	51.76
614.291	51.78
614.626	51.8
614.961	51.84
615.296	51.85
615.631	51.87
615.966	51.88
616.3	51.89
616.635	51.91
616.97	51.93
617.304	51.95
617.639	51.96
617.973	51.97
618.308	52
618.642	52
618.977	52.01
619.311	52.04
619.646	52.07
619.98	52.1
620.314	52.14
620.648	52.18
620.983	52.21
621.317	52.25
621.651	52.28
621.985	52.31
622.319	52.33
622.653	52.36
622.987	52.39
623.321	52.42
623.655	52.45
623.988	52.49
624.322	52.51
624.656	52.54
624.99	52.57
625.323	52.6
625.657	52.62
625.99	52.65
626.324	52.67
626.657	52.7
626.991	52.71
627.324	52.74
627.658	52.76
627.991	52.79
628.324	52.82
628.657	52.85
628.991	52.88
629.324	52.91
629.657	52.95
629.99	52.98
630.323	53
630.656	53.02
630.989	53.05
631.322	53.09
631.655	53.12
631.987	53.14
632.32	53.18
632.653	53.19
632.986	53.21
633.318	53.22
633.651	53.24
633.984	53.25
634.316	53.26
634.649	53.28
634.981	53.3
635.313	53.31
635.646	53.32
635.978	53.34
636.31	53.36
636.643	53.37
636.975	53.37
637.307	53.38
637.639	53.39
637.971	53.43
638.303	53.45
638.635	53.48
638.967	53.5
639.299	53.53
639.631	53.55
639.963	53.57
640.295	53.59
640.626	53.62
640.958	53.65
641.29	53.67
641.621	53.68
641.953	53.7
642.285	53.7
642.616	53.73
642.948	53.73
643.279	53.76
643.61	53.78
643.942	53.79
644.273	53.81
644.604	53.82
644.936	53.84
645.267	53.84
645.598	53.86
645.929	53.87
646.26	53.89
646.591	53.89
646.922	53.91
647.253	53.92
647.584	53.95
647.915	53.97
648.245	54
648.576	54
648.907	54.03
649.238	54.06
649.568	54.06
649.899	54.07
650.229	54.1
650.56	54.13
650.89	54.16
651.221	54.19
651.551	54.19
651.882	54.22
652.212	54.22
652.542	54.25
652.872	54.28
653.203	54.32
653.533	54.34
653.863	54.35
654.193	54.36
654.523	54.37
654.853	54.4
655.183	54.42
655.513	54.46
655.843	54.49
656.172	54.5
656.502	54.52
656.832	54.52
657.162	54.52
657.491	54.54
657.821	54.56
658.15	54.58
658.48	54.6
658.809	54.63
659.139	54.65
659.468	54.67
659.798	54.7
660.127	54.73
660.456	54.77
660.785	54.8
661.115	54.82
661.444	54.84
661.773	54.86
662.102	54.88
662.431	54.88
662.76	54.9
663.089	54.93
663.418	54.95
663.747	54.96
664.076	54.99
664.404	55.01
664.733	55.02
665.062	55.06
665.39	55.07
665.719	55.08
666.048	55.08
666.376	55.08
666.705	55.1
667.033	55.1
667.362	55.12
667.69	55.15
668.018	55.16
668.347	55.16
668.675	55.16
669.003	55.17
669.331	55.18
669.659	55.18
669.987	55.21
670.315	55.21
670.643	55.25
670.971	55.27
671.299	55.27
671.627	55.27
671.955	55.27
672.283	55.27
672.61	55.3
672.938	55.33
673.266	55.33
673.593	55.34
673.921	55.34
674.249	55.33
674.576	55.35
674.904	55.37
675.231	55.39
675.558	55.4
675.886	55.42
676.213	55.45
676.54	55.47
676.867	55.49
677.195	55.5
677.522	55.5
677.849	55.52
678.176	55.56
678.503	55.56
678.83	55.57
679.157	55.6
679.484	55.62
679.81	55.63
680.137	55.63
680.464	55.66
680.791	55.67
681.117	55.68
681.444	55.69
681.771	55.71
682.097	55.72
682.424	55.72
682.75	55.73
683.077	55.76
683.403	55.78
683.729	55.81
684.056	55.82
684.382	55.83
684.708	55.85
685.034	55.87
685.36	55.9
685.686	55.93
686.012	55.95
686.339	55.96
686.664	56
686.99	56.02
687.316	56.03
687.642	56.07
687.968	56.1
688.294	56.09
688.619	56.1
688.945	56.12
689.271	56.13
689.596	56.12
689.922	56.14
690.247	56.16
690.573	56.17
690.898	56.19
691.224	56.2
691.549	56.19
691.874	56.2
692.2	56.24
692.525	56.25
692.85	56.25
693.175	56.27
693.5	56.31
693.825	56.31
694.15	56.33
694.475	56.36
694.8	56.37
695.125	56.39
695.45	56.42
695.775	56.44
696.099	56.46
696.424	56.48
696.749	56.48
697.073	56.49
697.398	56.48
697.723	56.49
698.047	56.5
698.372	56.52
698.696	56.5
699.02	56.5
699.345	56.49
699.669	56.49
699.993	56.49
700.318	56.49
700.642	56.51
700.966	56.52
701.29	56.51
701.614	56.52
701.938	56.54
702.262	56.55
702.586	56.57
702.91	56.59
703.234	56.6
703.557	56.6
703.881	56.63
704.205	56.66
704.529	56.69
704.852	56.7
705.176	56.71
705.499	56.72
705.823	56.73
706.146	56.77
706.47	56.79
706.793	56.8
707.117	56.88
707.44	56.87
707.763	56.85
708.086	56.87
708.409	56.86
708.733	56.88
709.056	56.9
709.379	56.9
709.702	56.92
710.025	56.91
710.348	56.85
710.671	56.87
710.993	56.89
711.316	56.9
711.639	56.94
711.962	56.97
712.284	56.99
712.607	57.02
712.93	57.04
713.252	57.06
713.575	57.08
713.897	57.08
714.22	57.12
714.542	57.16
714.864	57.21
715.187	57.24
715.509	57.28
715.831	57.31
716.153	57.3
716.475	57.3
716.798	57.33
717.12	57.42
717.442	57.41
717.764	57.41
718.085	57.41
718.407	57.39
718.729	57.4
719.051	57.43
719.373	57.45
719.695	57.47
720.016	57.45
720.338	57.41
720.659	57.48
720.981	57.52
721.302	57.51
721.624	57.56
721.945	57.55
722.267	57.54
722.588	57.58
722.909	57.61
723.231	57.64
723.552	57.68
723.873	57.71
724.194	57.72
724.515	57.74
724.836	57.81
725.157	57.81
725.478	57.83
725.799	57.83
726.12	57.86
726.441	57.86
726.762	57.84
727.083	57.84
727.403	57.82
727.724	57.84
728.045	57.8
728.365	57.84
728.686	57.85
729.006	57.84
729.327	57.86
729.647	57.86
729.967	57.85
730.288	57.87
730.608	57.91
730.928	57.94
731.249	57.94
731.569	57.95
731.889	57.97
732.209	57.99
732.529	57.96
732.849	57.95
733.169	57.97
733.489	57.96
733.809	57.91
734.129	57.91
734.448	57.92
734.768	57.9
735.088	57.91
735.408	57.91
735.727	57.88
736.047	57.87
736.366	57.87
736.686	57.87
737.005	57.87
737.325	57.87
737.644	57.85
737.963	57.82
738.283	57.83
738.602	57.82
738.921	57.84
739.24	57.81
739.56	57.81
739.879	57.81
740.198	57.82
740.517	57.82
740.836	57.79
741.155	57.81
741.473	57.79
741.792	57.77
742.111	57.79
742.43	57.81
742.748	57.8
743.067	57.76
743.386	57.77
743.704	57.78
744.023	57.75
744.341	57.73
744.66	57.77
744.978	57.7
745.297	57.72
745.615	57.73
745.933	57.73
746.252	57.72
746.57	57.71
746.888	57.74
747.206	57.76
747.524	57.77
747.842	57.81
748.16	57.82
748.478	57.82
748.796	57.8
749.114	57.76
749.432	57.8
749.749	57.8
750.067	57.76
750.385	57.77
750.703	57.78
751.02	57.77
751.338	57.77
751.655	57.77
751.973	57.78
752.29	57.78
752.608	57.81
752.925	57.82
753.242	57.87
753.56	57.89
753.877	57.9
754.194	57.92
754.511	57.96
754.828	57.98
755.145	57.99
755.462	58.01
755.779	58.03
756.096	58.09
756.413	58.11
756.73	58.09
757.047	58.13
757.364	58.15
757.68	58.19
757.997	58.25
758.314	58.28
758.63	58.31
758.947	58.38
759.264	58.43
759.58	58.45
759.896	58.49
760.213	58.51
760.529	58.52
760.846	58.5
761.162	58.53
761.478	58.55
761.794	58.58
762.11	58.62
762.426	58.66
762.743	58.67
763.059	58.72
763.375	58.74
763.69	58.76
764.006	58.77
764.322	58.77
764.638	58.79
764.954	58.82
765.27	58.86
765.585	58.84
765.901	58.85
766.216	58.78
766.532	58.78
766.848	58.74
767.163	58.76
767.478	58.73
767.794	58.74
768.109	58.71
768.424	58.72
768.74	58.72
769.055	58.71
769.37	58.69
769.685	58.71
770	58.68
770.315	58.7
770.63	58.63
770.945	58.54
771.26	58.48
771.575	58.42
771.89	58.37
772.205	58.37
772.52	58.33
772.834	58.34
773.149	58.32
773.464	58.29
773.778	58.26
774.093	58.22
774.407	58.16
774.722	58.12
775.036	58.08
775.351	58.03
775.665	57.98
775.979	57.93
776.293	57.88
776.608	57.87
776.922	57.83
777.236	57.9
777.55	57.98
777.864	57.97
778.178	57.97
778.492	57.95
778.806	57.94
779.12	57.97
779.434	58.01
779.747	58.02
780.061	58.09
780.375	58.06
780.689	57.99
781.002	58.04
781.316	58.03
781.629	58.04
781.943	58.07
782.256	58.13
782.57	58.17
782.883	58.21
783.196	58.13
783.51	58.18
783.823	58.24
784.136	58.23
784.449	58.28
784.762	58.36
785.075	58.3
785.388	58.31
785.701	58.34
786.014	58.34
786.327	58.34
786.64	58.34
786.953	58.34
787.266	58.41
787.578	58.42
787.891	58.43
788.204	58.37
788.516	58.4
788.829	58.39
789.141	58.42
789.454	58.43
789.766	58.44
790.079	58.41
790.391	58.35
790.703	58.38
791.016	58.29
791.328	58.36
791.64	58.38
791.952	58.4
792.264	58.38
792.576	58.38
792.888	58.35
793.2	58.36
793.512	58.41
793.824	58.37
794.136	58.38
794.448	58.42
794.76	58.39
795.071	58.41
795.383	58.41
795.695	58.44
796.006	58.49
796.318	58.45
796.629	58.48
796.941	58.49
797.252	58.48
797.564	58.43
797.875	58.46
798.186	58.41
798.497	58.4
798.809	58.35
799.12	58.35
799.431	58.39
799.742	58.42
800.053	58.43
800.364	58.44
800.675	58.48
800.986	58.55
801.297	58.53
801.608	58.52
801.918	58.5
802.229	58.47
802.54	58.44
802.851	58.46
803.161	58.51
803.472	58.52
803.782	58.51
804.093	58.51
804.403	58.44
804.714	58.41
805.024	58.43
805.334	58.51
805.645	58.48
805.955	58.53
806.265	58.47
806.575	58.47
806.885	58.34
807.195	58.29
807.505	58.34
807.815	58.29
808.125	58.25
808.435	58.27
808.745	58.28
809.055	58.32
809.365	58.32
809.674	58.32
809.984	58.33
810.294	58.32
810.603	58.32
810.913	58.41
811.222	58.3
811.532	58.28
811.841	58.31
812.151	58.23
812.46	58.24
812.769	58.21
813.079	58.3
813.388	58.27
813.697	58.19
814.006	58.14
814.315	58.17
814.624	58.19
814.933	58.16
815.242	58.16
815.551	58.1
815.86	57.98
816.169	57.96
816.478	57.87
816.786	57.94
817.095	57.97
817.404	58.04
817.712	58.05
818.021	58.01
818.33	58.05
818.638	58.08
818.947	58.13
819.255	58.1
819.563	58.19
819.872	58.28
820.18	58.37
820.488	58.44
820.796	58.48
821.105	58.5
821.413	58.51
821.721	58.56
822.029	58.6
822.337	58.65
822.645	58.66
822.953	58.67
823.26	58.65
823.568	58.66
823.876	58.69
824.184	58.7
824.491	58.7
824.799	58.74
825.107	58.74
825.414	58.78
825.722	58.78
826.029	58.8
826.337	58.81
826.644	58.82
826.951	58.83
827.259	58.84
827.566	58.87
827.873	58.87
828.18	58.87
828.488	58.9
828.795	58.89
829.102	58.93
829.409	58.92
829.716	58.93
830.023	58.94
830.329	58.95
830.636	59
830.943	59.02
831.25	59.06
831.557	59.08
831.863	59.15
832.17	59.18
832.476	59.18
832.783	59.09
833.089	59.05
833.396	58.98
833.702	58.97
834.009	58.95
834.315	58.89
834.621	58.85
834.928	58.8
835.234	58.78
835.54	58.79
835.846	58.81
836.152	58.81
836.458	58.75
836.764	58.69
837.07	58.68
837.376	58.59
837.682	58.56
837.988	58.48
838.293	58.33
838.599	58.34
838.905	58.37
839.211	58.42
839.516	58.38
839.822	58.4
840.127	58.39
840.433	58.46
840.738	58.48
841.044	58.47
841.349	58.62
841.654	58.69
841.959	58.76
842.265	58.79
842.57	58.84
842.875	58.94
843.18	59.03
843.485	59.09
843.79	59.1
844.095	59.1
844.4	59.02
844.705	58.89
845.01	58.74
845.315	58.76
845.619	58.66
845.924	58.57
846.229	58.49
846.533	58.47
846.838	58.45
847.142	58.47
847.447	58.54
847.751	58.44
848.056	58.46
848.36	58.53
848.664	58.5
848.969	58.53
849.273	58.46
849.577	58.38
849.881	58.37
850.185	58.34
850.489	58.48
850.794	58.64
851.097	58.34
851.401	58.17
851.705	58.17
852.009	58.4
852.313	58.4
852.617	58.41
852.92	58.36
853.224	58.26
853.528	58.14
853.831	57.91
854.135	57.84
854.438	57.81
854.742	57.83
855.045	57.74
855.349	57.69
855.652	57.71
855.955	57.66
856.259	57.73
856.562	57.82
856.865	57.76
857.168	57.74
857.471	57.75
857.774	57.58
858.077	57.52
858.38	57.54
858.683	57.46
858.986	57.38
859.289	57.7
859.592	57.67
859.894	57.73
860.197	57.66
860.5	57.66
860.802	57.66
861.105	57.69
861.407	57.91
861.71	58.05
862.012	57.95
862.315	57.83
862.617	57.73
862.919	57.51
863.222	57.51
863.524	57.77
863.826	57.87
864.128	58.04
864.43	57.81
864.732	57.92
865.034	57.99
865.336	57.9
865.638	57.9
865.94	57.93
866.242	57.99
866.544	57.74
866.846	57.82
867.147	57.68
867.449	57.58
867.751	57.72
868.052	57.78
868.354	57.74
868.655	57.72
868.957	57.68
869.258	57.79
869.56	57.98
869.861	58
870.162	58.04
870.463	58.06
870.765	58.16
871.066	58.18
871.367	58.11
871.668	58.03
871.969	58.07
872.27	58.12
872.571	58.29
872.872	58.42
873.173	58.34
873.473	58.5
873.774	58.42
874.075	58.39
874.376	58.56
874.676	58.71
874.977	58.67
875.277	58.71
875.578	58.74
875.878	58.54
876.179	58.65
876.479	58.44
876.78	58.7
877.08	58.53
877.38	58.65
877.68	58.84
877.981	58.93
878.281	59.04
878.581	59
