Data from UWBM55942_Reflection_00008.txt Node
Date: Sun May 02 14:11:10 EDT 2021
User: vgr7
Spectrometer: USB2G7710
Scans to average: 10
Trigger mode: 4
Integration Time (sec): 1.000000E-1
Electric dark correction enabled: true
Boxcar width: 20
XAxis mode: Wavelengths
Number of Pixels in Spectrum: 2048
>>>>>Begin Spectral Data<<<<<
177.721	-1650
178.105	-143.63
178.488	-506.02
178.871	-1164.71
179.254	375
179.636	230.41
180.019	112
180.402	106.52
180.785	76.9
181.168	72.48
181.55	72.67
181.933	65.21
182.316	56.25
182.698	55.58
183.081	49.09
183.463	42.14
183.846	40.71
184.228	43.77
184.611	41.9
184.993	41.62
185.376	39.77
185.758	39.95
186.14	37.61
186.522	35.43
186.904	34.19
187.287	36.04
187.669	36.24
188.051	36.66
188.433	36.39
188.815	34.46
189.197	34.99
189.579	34.03
189.961	32.44
190.342	31.86
190.724	32.08
191.106	31.61
191.488	34.47
191.869	31.57
192.251	31
192.633	31.7
193.014	29.58
193.396	25.72
193.777	25.72
194.159	25.04
194.54	23.09
194.922	22.35
195.303	22.68
195.684	22.87
196.065	21.86
196.447	23.11
196.828	21.47
197.209	19.56
197.59	17.85
197.971	19.07
198.352	18.51
198.733	20.76
199.114	23.55
199.495	24.61
199.876	24.71
200.257	26.01
200.638	23.42
201.018	23.79
201.399	24.43
201.78	24.98
202.16	25.08
202.541	24.29
202.922	21.94
203.302	21.41
203.683	20.31
204.063	19.76
204.444	19.74
204.824	20.8
205.204	20.01
205.585	22.29
205.965	22.59
206.345	22.12
206.725	22.81
207.106	22.43
207.486	23.55
207.866	23.65
208.246	22.95
208.626	23.24
209.006	23.83
209.386	24.01
209.766	24.38
210.145	23.55
210.525	23.88
210.905	23.34
211.285	21.82
211.664	22.18
212.044	21.43
212.424	20.45
212.803	20.98
213.183	21.1
213.562	20.56
213.942	21.24
214.321	18.91
214.701	17.15
215.08	16.8
215.459	14.42
215.838	13.19
216.218	13.97
216.597	12.9
216.976	12.76
217.355	11.49
217.734	10.94
218.113	11.24
218.492	11.08
218.871	11.57
219.25	12.15
219.629	11.96
220.008	11.61
220.387	10.44
220.766	11.56
221.144	9
221.523	9.33
221.902	9.16
222.28	8.07
222.659	8.19
223.037	7.57
223.416	7.5
223.794	6.93
224.173	6.48
224.551	6.42
224.929	6.94
225.308	6.41
225.686	7.08
226.064	7
226.442	6.95
226.821	7.66
227.199	7.5
227.577	7.59
227.955	7.87
228.333	7.82
228.711	7.73
229.089	7.59
229.467	7.11
229.845	7.17
230.222	7.05
230.6	6.68
230.978	6.84
231.356	6.79
231.733	6.78
232.111	6.54
232.488	6.38
232.866	6.4
233.243	6.38
233.621	6.12
233.998	6.09
234.376	5.88
234.753	5.56
235.13	5.53
235.508	5.62
235.885	5.52
236.262	5.29
236.639	5.32
237.016	5.33
237.393	5.36
237.77	5.46
238.147	5.42
238.524	5.32
238.901	5.28
239.278	5.31
239.655	5.32
240.032	5.27
240.409	5.19
240.785	5.29
241.162	5.25
241.539	5.2
241.915	5.23
242.292	5.27
242.668	5.25
243.045	5.22
243.421	5.22
243.798	5.2
244.174	5.22
244.551	5.19
244.927	5.2
245.303	5.21
245.679	5.24
246.056	5.23
246.432	5.26
246.808	5.24
247.184	5.25
247.56	5.27
247.936	5.25
248.312	5.24
248.688	5.23
249.064	5.23
249.44	5.23
249.815	5.19
250.191	5.18
250.567	5.17
250.943	5.16
251.318	5.13
251.694	5.13
252.069	5.12
252.445	5.08
252.82	5.05
253.196	5.02
253.571	4.98
253.947	4.98
254.322	4.93
254.697	4.93
255.073	4.9
255.448	4.89
255.823	4.86
256.198	4.82
256.573	4.79
256.948	4.81
257.323	4.78
257.698	4.71
258.073	4.69
258.448	4.67
258.823	4.65
259.198	4.64
259.573	4.63
259.948	4.62
260.322	4.62
260.697	4.61
261.072	4.58
261.446	4.56
261.821	4.52
262.195	4.5
262.57	4.48
262.944	4.47
263.319	4.49
263.693	4.48
264.067	4.47
264.442	4.47
264.816	4.45
265.19	4.47
265.564	4.47
265.938	4.47
266.313	4.48
266.687	4.46
267.061	4.46
267.435	4.46
267.809	4.45
268.183	4.44
268.556	4.44
268.93	4.46
269.304	4.46
269.678	4.47
270.051	4.44
270.425	4.42
270.799	4.42
271.172	4.45
271.546	4.46
271.919	4.46
272.293	4.45
272.666	4.44
273.04	4.46
273.413	4.49
273.787	4.5
274.16	4.51
274.533	4.52
274.906	4.53
275.279	4.54
275.653	4.54
276.026	4.55
276.399	4.54
276.772	4.55
277.145	4.56
277.518	4.59
277.891	4.61
278.263	4.61
278.636	4.6
279.009	4.6
279.382	4.61
279.755	4.62
280.127	4.64
280.5	4.66
280.872	4.67
281.245	4.68
281.617	4.68
281.99	4.72
282.362	4.73
282.735	4.73
283.107	4.74
283.479	4.74
283.852	4.77
284.224	4.77
284.596	4.76
284.968	4.78
285.34	4.8
285.713	4.83
286.085	4.85
286.457	4.86
286.829	4.88
287.201	4.9
287.572	4.92
287.944	4.95
288.316	4.97
288.688	4.98
289.06	5.01
289.431	5.04
289.803	5.07
290.175	5.12
290.546	5.15
290.918	5.19
291.289	5.22
291.661	5.26
292.032	5.3
292.403	5.33
292.775	5.37
293.146	5.42
293.517	5.46
293.889	5.51
294.26	5.56
294.631	5.62
295.002	5.67
295.373	5.71
295.744	5.75
296.115	5.8
296.486	5.86
296.857	5.92
297.228	5.96
297.599	6.02
297.97	6.09
298.34	6.15
298.711	6.22
299.082	6.28
299.452	6.34
299.823	6.41
300.194	6.48
300.564	6.56
300.935	6.61
301.305	6.67
301.676	6.73
302.046	6.8
302.416	6.87
302.787	6.93
303.157	7
303.527	7.07
303.897	7.15
304.267	7.24
304.637	7.33
305.008	7.41
305.378	7.48
305.748	7.55
306.117	7.64
306.487	7.74
306.857	7.85
307.227	7.94
307.597	8.03
307.967	8.1
308.336	8.17
308.706	8.26
309.076	8.33
309.445	8.41
309.815	8.46
310.184	8.53
310.554	8.62
310.923	8.69
311.293	8.77
311.662	8.83
312.031	8.91
312.401	8.99
312.77	9.06
313.139	9.14
313.508	9.21
313.877	9.27
314.246	9.34
314.616	9.42
314.985	9.5
315.353	9.57
315.722	9.63
316.091	9.73
316.46	9.8
316.829	9.89
317.198	9.97
317.567	10.07
317.935	10.16
318.304	10.26
318.672	10.35
319.041	10.46
319.41	10.56
319.778	10.65
320.147	10.75
320.515	10.84
320.883	10.92
321.252	11
321.62	11.1
321.988	11.16
322.357	11.24
322.725	11.31
323.093	11.38
323.461	11.44
323.829	11.52
324.197	11.61
324.565	11.67
324.933	11.76
325.301	11.82
325.669	11.88
326.037	11.94
326.405	12
326.772	12.06
327.14	12.12
327.508	12.18
327.875	12.24
328.243	12.3
328.61	12.34
328.978	12.38
329.346	12.44
329.713	12.5
330.08	12.56
330.448	12.6
330.815	12.66
331.182	12.71
331.55	12.79
331.917	12.84
332.284	12.89
332.651	12.94
333.018	13.01
333.385	13.07
333.752	13.14
334.119	13.19
334.486	13.25
334.853	13.3
335.22	13.36
335.587	13.43
335.954	13.48
336.32	13.53
336.687	13.56
337.054	13.61
337.42	13.67
337.787	13.73
338.153	13.78
338.52	13.82
338.886	13.85
339.253	13.89
339.619	13.95
339.986	13.99
340.352	14.03
340.718	14.09
341.084	14.15
341.451	14.17
341.817	14.21
342.183	14.27
342.549	14.31
342.915	14.34
343.281	14.37
343.647	14.42
344.013	14.47
344.379	14.5
344.745	14.55
345.11	14.58
345.476	14.63
345.842	14.67
346.208	14.7
346.573	14.71
346.939	14.74
347.304	14.79
347.67	14.81
348.035	14.83
348.401	14.86
348.766	14.88
349.132	14.9
349.497	14.94
349.862	14.96
350.228	14.99
350.593	15
350.958	15.01
351.323	15.03
351.688	15.05
352.053	15.06
352.418	15.06
352.783	15.07
353.148	15.08
353.513	15.09
353.878	15.1
354.243	15.1
354.608	15.1
354.972	15.1
355.337	15.09
355.702	15.08
356.066	15.07
356.431	15.05
356.795	15.03
357.16	15.01
357.524	15
357.889	14.99
358.253	14.98
358.618	14.96
358.982	14.93
359.346	14.92
359.71	14.89
360.075	14.87
360.439	14.84
360.803	14.8
361.167	14.76
361.531	14.74
361.895	14.71
362.259	14.67
362.623	14.64
362.987	14.6
363.351	14.56
363.714	14.51
364.078	14.47
364.442	14.42
364.806	14.37
365.169	14.33
365.533	14.28
365.896	14.23
366.26	14.19
366.623	14.14
366.987	14.08
367.35	14.03
367.714	13.97
368.077	13.91
368.44	13.84
368.803	13.77
369.167	13.7
369.53	13.62
369.893	13.53
370.256	13.44
370.619	13.35
370.982	13.27
371.345	13.19
371.708	13.12
372.071	13.03
372.434	12.94
372.797	12.86
373.159	12.77
373.522	12.69
373.885	12.62
374.247	12.52
374.61	12.43
374.973	12.34
375.335	12.25
375.698	12.17
376.06	12.08
376.423	11.99
376.785	11.9
377.147	11.82
377.51	11.73
377.872	11.65
378.234	11.56
378.596	11.48
378.958	11.39
379.321	11.3
379.683	11.22
380.045	11.12
380.407	11.04
380.769	10.96
381.13	10.87
381.492	10.79
381.854	10.71
382.216	10.62
382.578	10.54
382.939	10.47
383.301	10.38
383.663	10.3
384.024	10.22
384.386	10.15
384.747	10.08
385.109	10.01
385.47	9.94
385.832	9.86
386.193	9.79
386.554	9.71
386.916	9.64
387.277	9.57
387.638	9.5
387.999	9.44
388.36	9.37
388.721	9.31
389.082	9.26
389.443	9.19
389.804	9.13
390.165	9.06
390.526	9.01
390.887	8.95
391.248	8.89
391.609	8.83
391.969	8.78
392.33	8.72
392.691	8.66
393.051	8.6
393.412	8.53
393.772	8.47
394.133	8.41
394.493	8.34
394.854	8.29
395.214	8.23
395.574	8.16
395.935	8.1
396.295	8.04
396.655	7.97
397.015	7.92
397.376	7.86
397.736	7.8
398.096	7.74
398.456	7.68
398.816	7.63
399.176	7.57
399.535	7.51
399.895	7.45
400.255	7.4
400.615	7.34
400.975	7.29
401.334	7.24
401.694	7.19
402.054	7.14
402.413	7.09
402.773	7.04
403.132	7
403.492	6.96
403.851	6.91
404.211	6.87
404.57	6.84
404.929	6.8
405.288	6.76
405.648	6.72
406.007	6.7
406.366	6.66
406.725	6.63
407.084	6.6
407.443	6.57
407.802	6.54
408.161	6.52
408.52	6.49
408.879	6.47
409.238	6.45
409.596	6.42
409.955	6.4
410.314	6.37
410.673	6.35
411.031	6.33
411.39	6.31
411.748	6.28
412.107	6.26
412.465	6.25
412.824	6.25
413.182	6.25
413.54	6.26
413.899	6.27
414.257	6.29
414.615	6.32
414.974	6.34
415.332	6.36
415.69	6.39
416.048	6.41
416.406	6.43
416.764	6.45
417.122	6.46
417.48	6.48
417.838	6.5
418.195	6.51
418.553	6.51
418.911	6.51
419.269	6.49
419.626	6.47
419.984	6.44
420.342	6.4
420.699	6.36
421.057	6.31
421.414	6.27
421.772	6.23
422.129	6.2
422.486	6.17
422.844	6.15
423.201	6.13
423.558	6.1
423.915	6.09
424.273	6.06
424.63	6.04
424.987	6.03
425.344	6.01
425.701	5.99
426.058	5.97
426.415	5.95
426.772	5.93
427.128	5.9
427.485	5.87
427.842	5.84
428.199	5.8
428.555	5.76
428.912	5.71
429.269	5.66
429.625	5.61
429.982	5.56
430.338	5.51
430.695	5.47
431.051	5.41
431.407	5.37
431.764	5.34
432.12	5.3
432.476	5.28
432.832	5.26
433.189	5.25
433.545	5.25
433.901	5.26
434.257	5.28
434.613	5.31
434.969	5.34
435.325	5.37
435.681	5.42
436.036	5.44
436.392	5.46
436.748	5.48
437.104	5.49
437.459	5.51
437.815	5.53
438.171	5.56
438.526	5.59
438.882	5.62
439.237	5.67
439.593	5.71
439.948	5.74
440.304	5.78
440.659	5.81
441.014	5.83
441.369	5.86
441.725	5.88
442.08	5.89
442.435	5.91
442.79	5.91
443.145	5.91
443.5	5.9
443.855	5.9
444.21	5.89
444.565	5.88
444.92	5.86
445.275	5.85
445.629	5.83
445.984	5.8
446.339	5.78
446.693	5.75
447.048	5.72
447.403	5.69
447.757	5.65
448.112	5.62
448.466	5.58
448.82	5.54
449.175	5.5
449.529	5.46
449.883	5.43
450.238	5.38
450.592	5.37
450.946	5.35
451.3	5.34
451.654	5.34
452.008	5.33
452.362	5.32
452.716	5.32
453.07	5.31
453.424	5.29
453.778	5.27
454.132	5.25
454.486	5.23
454.839	5.21
455.193	5.17
455.547	5.16
455.9	5.12
456.254	5.09
456.607	5.05
456.961	5.02
457.314	4.99
457.668	4.98
458.021	4.97
458.375	4.96
458.728	4.96
459.081	4.97
459.434	4.98
459.787	4.99
460.141	5.01
460.494	5.02
460.847	5.04
461.2	5.05
461.553	5.07
461.906	5.08
462.259	5.1
462.611	5.11
462.964	5.12
463.317	5.14
463.67	5.15
464.022	5.17
464.375	5.19
464.728	5.21
465.08	5.22
465.433	5.23
465.785	5.24
466.138	5.24
466.49	5.23
466.843	5.23
467.195	5.22
467.547	5.2
467.899	5.19
468.252	5.17
468.604	5.15
468.956	5.15
469.308	5.14
469.66	5.15
470.012	5.16
470.364	5.18
470.716	5.19
471.068	5.22
471.42	5.26
471.772	5.29
472.123	5.32
472.475	5.34
472.827	5.37
473.178	5.38
473.53	5.4
473.882	5.43
474.233	5.46
474.585	5.51
474.936	5.59
475.288	5.71
475.639	5.85
475.99	6.02
476.342	6.21
476.693	6.41
477.044	6.62
477.395	6.83
477.746	7.04
478.097	7.25
478.448	7.47
478.8	7.69
479.15	7.88
479.501	8.06
479.852	8.22
480.203	8.38
480.554	8.53
480.905	8.67
481.255	8.8
481.606	8.93
481.957	9.05
482.307	9.16
482.658	9.26
483.009	9.37
483.359	9.47
483.709	9.56
484.06	9.65
484.41	9.74
484.761	9.83
485.111	9.92
485.461	10
485.811	10.08
486.162	10.15
486.512	10.21
486.862	10.26
487.212	10.29
487.562	10.31
487.912	10.33
488.262	10.34
488.612	10.34
488.961	10.32
489.311	10.27
489.661	10.19
490.011	10.1
490.36	9.97
490.71	9.83
491.06	9.68
491.409	9.52
491.759	9.35
492.108	9.17
492.458	9
492.807	8.81
493.157	8.63
493.506	8.45
493.855	8.29
494.204	8.14
494.554	8
494.903	7.88
495.252	7.76
495.601	7.66
495.95	7.56
496.299	7.46
496.648	7.38
496.997	7.31
497.346	7.25
497.695	7.19
498.043	7.14
498.392	7.1
498.741	7.06
499.09	7.03
499.438	7
499.787	6.99
500.135	6.99
500.484	7
500.832	7.02
501.181	7.06
501.529	7.12
501.878	7.2
502.226	7.29
502.574	7.39
502.923	7.49
503.271	7.61
503.619	7.72
503.967	7.84
504.315	7.95
504.663	8.07
505.011	8.19
505.359	8.32
505.707	8.44
506.055	8.57
506.403	8.71
506.751	8.85
507.098	8.99
507.446	9.14
507.794	9.29
508.141	9.45
508.489	9.62
508.837	9.8
509.184	9.97
509.531	10.15
509.879	10.33
510.226	10.54
510.574	10.75
510.921	10.97
511.268	11.19
511.616	11.42
511.963	11.65
512.31	11.89
512.657	12.12
513.004	12.35
513.351	12.57
513.698	12.77
514.045	12.97
514.392	13.15
514.739	13.32
515.086	13.48
515.432	13.64
515.779	13.79
516.126	13.96
516.473	14.13
516.819	14.32
517.166	14.53
517.512	14.75
517.859	15
518.205	15.26
518.552	15.55
518.898	15.86
519.245	16.21
519.591	16.64
519.937	17.16
520.283	17.75
520.629	18.4
520.976	19.07
521.322	19.78
521.668	20.5
522.014	21.24
522.36	21.98
522.706	22.71
523.052	23.41
523.398	24.07
523.743	24.68
524.089	25.23
524.435	25.74
524.781	26.25
525.126	26.74
525.472	27.22
525.817	27.7
526.163	28.16
526.509	28.6
526.854	29.05
527.199	29.5
527.545	29.95
527.89	30.41
528.235	30.87
528.581	31.3
528.926	31.72
529.271	32.12
529.616	32.5
529.961	32.86
530.306	33.21
530.651	33.54
530.996	33.84
531.341	34.11
531.686	34.36
532.031	34.6
532.376	34.86
532.721	35.14
533.065	35.46
533.41	35.8
533.755	36.09
534.099	36.34
534.444	36.55
534.788	36.73
535.133	36.9
535.477	37.05
535.822	37.17
536.166	37.24
536.51	37.26
536.855	37.22
537.199	37.15
537.543	37.07
537.887	37.03
538.231	37.04
538.576	37.05
538.92	37.05
539.264	37.03
539.608	36.99
539.951	36.94
540.295	36.87
540.639	36.8
540.983	36.7
541.327	36.58
541.671	36.45
542.014	36.33
542.358	36.25
542.701	36.24
543.045	36.31
543.389	36.4
543.732	36.53
544.075	36.67
544.419	36.83
544.762	37
545.105	37.18
545.449	37.38
545.792	37.6
546.135	37.81
546.478	37.97
546.821	38.09
547.165	38.14
547.508	38.13
547.851	38.08
548.194	37.99
548.536	37.85
548.879	37.67
549.222	37.47
549.565	37.27
549.908	37.06
550.25	36.89
550.593	36.77
550.936	36.74
551.278	36.75
551.621	36.82
551.963	36.9
552.306	37.02
552.648	37.15
552.991	37.33
553.333	37.52
553.675	37.76
554.017	38.02
554.36	38.32
554.702	38.65
555.044	39.02
555.386	39.44
555.728	39.91
556.07	40.33
556.412	40.75
556.754	41.1
557.096	41.37
557.438	41.64
557.78	41.92
558.121	42.21
558.463	42.49
558.805	42.78
559.147	43.07
559.488	43.35
559.83	43.62
560.171	43.9
560.513	44.19
560.854	44.46
561.196	44.72
561.537	44.97
561.878	45.22
562.22	45.46
562.561	45.7
562.902	45.94
563.243	46.18
563.584	46.42
563.925	46.66
564.266	46.9
564.607	47.13
564.948	47.35
565.289	47.57
565.63	47.8
565.971	48.02
566.312	48.23
566.653	48.44
566.993	48.65
567.334	48.85
567.675	49.04
568.015	49.23
568.356	49.41
568.696	49.59
569.037	49.77
569.377	49.94
569.718	50.1
570.058	50.26
570.398	50.42
570.739	50.56
571.079	50.71
571.419	50.84
571.759	50.98
572.099	51.11
572.439	51.24
572.779	51.36
573.119	51.49
573.459	51.61
573.799	51.72
574.139	51.84
574.479	51.95
574.819	52.06
575.158	52.18
575.498	52.29
575.838	52.4
576.177	52.5
576.517	52.62
576.856	52.72
577.196	52.83
577.535	52.93
577.875	53.02
578.214	53.11
578.553	53.21
578.893	53.3
579.232	53.4
579.571	53.48
579.91	53.57
580.25	53.66
580.589	53.75
580.928	53.84
581.267	53.93
581.606	54.03
581.945	54.12
582.283	54.22
582.622	54.3
582.961	54.39
583.3	54.47
583.639	54.56
583.977	54.65
584.316	54.74
584.654	54.83
584.993	54.92
585.332	55.03
585.67	55.11
586.008	55.2
586.347	55.29
586.685	55.38
587.024	55.44
587.362	55.53
587.7	55.62
588.038	55.7
588.376	55.79
588.715	55.88
589.053	55.98
589.391	56.07
589.729	56.15
590.067	56.24
590.404	56.31
590.742	56.4
591.08	56.48
591.418	56.56
591.756	56.63
592.093	56.7
592.431	56.76
592.769	56.82
593.106	56.88
593.444	56.94
593.781	57
594.119	57.05
594.456	57.1
594.793	57.16
595.131	57.21
595.468	57.25
595.805	57.31
596.143	57.36
596.48	57.42
596.817	57.48
597.154	57.55
597.491	57.62
597.828	57.68
598.165	57.74
598.502	57.8
598.839	57.87
599.176	57.92
599.512	57.97
599.849	58.01
600.186	58.06
600.523	58.09
600.859	58.13
601.196	58.18
601.532	58.22
601.869	58.27
602.205	58.3
602.542	58.34
602.878	58.39
603.215	58.42
603.551	58.44
603.887	58.48
604.223	58.51
604.56	58.53
604.896	58.57
605.232	58.59
605.568	58.61
605.904	58.64
606.24	58.66
606.576	58.69
606.912	58.72
607.248	58.74
607.583	58.76
607.919	58.78
608.255	58.82
608.591	58.84
608.926	58.86
609.262	58.89
609.597	58.91
609.933	58.93
610.268	58.95
610.604	58.96
610.939	58.97
611.275	58.97
611.61	58.99
611.945	59
612.281	59.01
612.616	59
612.951	59.01
613.286	59.01
613.621	59.02
613.956	59.03
614.291	59.06
614.626	59.06
614.961	59.07
615.296	59.09
615.631	59.11
615.966	59.12
616.3	59.12
616.635	59.12
616.97	59.12
617.304	59.14
617.639	59.15
617.973	59.15
618.308	59.16
618.642	59.16
618.977	59.17
619.311	59.2
619.646	59.22
619.98	59.26
620.314	59.29
620.648	59.31
620.983	59.34
621.317	59.36
621.651	59.38
621.985	59.39
622.319	59.41
622.653	59.43
622.987	59.43
623.321	59.45
623.655	59.46
623.988	59.48
624.322	59.5
624.656	59.52
624.99	59.53
625.323	59.54
625.657	59.57
625.99	59.58
626.324	59.6
626.657	59.59
626.991	59.62
627.324	59.64
627.658	59.65
627.991	59.65
628.324	59.67
628.657	59.68
628.991	59.7
629.324	59.7
629.657	59.71
629.99	59.72
630.323	59.74
630.656	59.77
630.989	59.79
631.322	59.8
631.655	59.82
631.987	59.84
632.32	59.86
632.653	59.87
632.986	59.88
633.318	59.88
633.651	59.9
633.984	59.9
634.316	59.91
634.649	59.9
634.981	59.91
635.313	59.91
635.646	59.91
635.978	59.92
636.31	59.93
636.643	59.97
636.975	59.96
637.307	59.98
637.639	59.99
637.971	60.01
638.303	60.02
638.635	60.05
638.967	60.05
639.299	60.05
639.631	60.05
639.963	60.07
640.295	60.11
640.626	60.12
640.958	60.12
641.29	60.14
641.621	60.16
641.953	60.18
642.285	60.19
642.616	60.19
642.948	60.22
643.279	60.24
643.61	60.25
643.942	60.26
644.273	60.27
644.604	60.27
644.936	60.28
645.267	60.29
645.598	60.29
645.929	60.29
646.26	60.3
646.591	60.31
646.922	60.32
647.253	60.31
647.584	60.33
647.915	60.34
648.245	60.35
648.576	60.36
648.907	60.37
649.238	60.41
649.568	60.4
649.899	60.41
650.229	60.41
650.56	60.43
650.89	60.45
651.221	60.46
651.551	60.45
651.882	60.44
652.212	60.45
652.542	60.47
652.872	60.48
653.203	60.52
653.533	60.53
653.863	60.52
654.193	60.53
654.523	60.54
654.853	60.54
655.183	60.54
655.513	60.54
655.843	60.55
656.172	60.57
656.502	60.56
656.832	60.56
657.162	60.58
657.491	60.59
657.821	60.6
658.15	60.61
658.48	60.62
658.809	60.64
659.139	60.67
659.468	60.68
659.798	60.68
660.127	60.69
660.456	60.71
660.785	60.73
661.115	60.74
661.444	60.75
661.773	60.75
662.102	60.75
662.431	60.77
662.76	60.78
663.089	60.8
663.418	60.81
663.747	60.82
664.076	60.85
664.404	60.85
664.733	60.86
665.062	60.89
665.39	60.91
665.719	60.93
666.048	60.94
666.376	60.95
666.705	60.94
667.033	60.95
667.362	60.96
667.69	60.97
668.018	60.97
668.347	61
668.675	61.01
669.003	61.02
669.331	61.04
669.659	61.04
669.987	61.05
670.315	61.08
670.643	61.07
670.971	61.08
671.299	61.09
671.627	61.1
671.955	61.1
672.283	61.09
672.61	61.07
672.938	61.08
673.266	61.12
673.593	61.13
673.921	61.14
674.249	61.14
674.576	61.13
674.904	61.13
675.231	61.16
675.558	61.18
675.886	61.17
676.213	61.17
676.54	61.16
676.867	61.16
677.195	61.16
677.522	61.15
677.849	61.16
678.176	61.17
678.503	61.17
678.83	61.16
679.157	61.16
679.484	61.17
679.81	61.18
680.137	61.17
680.464	61.19
680.791	61.2
681.117	61.2
681.444	61.22
681.771	61.22
682.097	61.23
682.424	61.25
682.75	61.25
683.077	61.26
683.403	61.28
683.729	61.27
684.056	61.29
684.382	61.29
684.708	61.31
685.034	61.32
685.36	61.33
685.686	61.33
686.012	61.34
686.339	61.34
686.664	61.33
686.99	61.34
687.316	61.35
687.642	61.36
687.968	61.37
688.294	61.38
688.619	61.39
688.945	61.4
689.271	61.41
689.596	61.42
689.922	61.44
690.247	61.45
690.573	61.43
690.898	61.43
691.224	61.43
691.549	61.44
691.874	61.44
692.2	61.44
692.525	61.45
692.85	61.45
693.175	61.46
693.5	61.49
693.825	61.48
694.15	61.49
694.475	61.5
694.8	61.5
695.125	61.51
695.45	61.51
695.775	61.49
696.099	61.5
696.424	61.51
696.749	61.5
697.073	61.51
697.398	61.51
697.723	61.51
698.047	61.5
698.372	61.5
698.696	61.51
699.02	61.55
699.345	61.57
699.669	61.57
699.993	61.58
700.318	61.58
700.642	61.59
700.966	61.6
701.29	61.6
701.614	61.62
701.938	61.62
702.262	61.62
702.586	61.62
702.91	61.61
703.234	61.63
703.557	61.64
703.881	61.66
704.205	61.67
704.529	61.66
704.852	61.66
705.176	61.68
705.499	61.69
705.823	61.7
706.146	61.71
706.47	61.71
706.793	61.7
707.117	61.7
707.44	61.71
707.763	61.72
708.086	61.74
708.409	61.76
708.733	61.78
709.056	61.79
709.379	61.81
709.702	61.8
710.025	61.8
710.348	61.8
710.671	61.8
710.993	61.82
711.316	61.83
711.639	61.85
711.962	61.87
712.284	61.87
712.607	61.86
712.93	61.87
713.252	61.87
713.575	61.89
713.897	61.89
714.22	61.91
714.542	61.89
714.864	61.88
715.187	61.88
715.509	61.89
715.831	61.89
716.153	61.9
716.475	61.91
716.798	61.9
717.12	61.92
717.442	61.93
717.764	61.94
718.085	61.96
718.407	61.96
718.729	61.97
719.051	61.95
719.373	61.95
719.695	61.97
720.016	61.97
720.338	61.99
720.659	62
720.981	61.98
721.302	61.95
721.624	61.98
721.945	61.99
722.267	62.01
722.588	62.03
722.909	62.04
723.231	62.03
723.552	62.06
723.873	62.08
724.194	62.1
724.515	62.08
724.836	62.08
725.157	62.09
725.478	62.11
725.799	62.11
726.12	62.12
726.441	62.13
726.762	62.13
727.083	62.13
727.403	62.13
727.724	62.14
728.045	62.15
728.365	62.16
728.686	62.17
729.006	62.21
729.327	62.22
729.647	62.23
729.967	62.26
730.288	62.27
730.608	62.27
730.928	62.28
731.249	62.27
731.569	62.29
731.889	62.31
732.209	62.33
732.529	62.32
732.849	62.34
733.169	62.35
733.489	62.35
733.809	62.35
734.129	62.36
734.448	62.42
734.768	62.43
735.088	62.43
735.408	62.44
735.727	62.42
736.047	62.41
736.366	62.44
736.686	62.4
737.005	62.39
737.325	62.38
737.644	62.38
737.963	62.39
738.283	62.36
738.602	62.33
738.921	62.33
739.24	62.35
739.56	62.32
739.879	62.3
740.198	62.29
740.517	62.27
740.836	62.27
741.155	62.24
741.473	62.23
741.792	62.25
742.111	62.19
742.43	62.18
742.748	62.17
743.067	62.17
743.386	62.19
743.704	62.21
744.023	62.21
744.341	62.18
744.66	62.17
744.978	62.17
745.297	62.17
745.615	62.19
745.933	62.16
746.252	62.16
746.57	62.16
746.888	62.18
747.206	62.19
747.524	62.12
747.842	62.09
748.16	62.08
748.478	62.06
748.796	62.05
749.114	62.08
749.432	62.06
749.749	62.07
750.067	62.09
750.385	62.07
750.703	62.05
751.02	62.05
751.338	62.06
751.655	62.05
751.973	62.04
752.29	62.03
752.608	62.03
752.925	62.03
753.242	62.08
753.56	62.1
753.877	62.13
754.194	62.18
754.511	62.17
754.828	62.14
755.145	62.17
755.462	62.17
755.779	62.2
756.096	62.21
756.413	62.19
756.73	62.2
757.047	62.23
757.364	62.28
757.68	62.32
757.997	62.33
758.314	62.33
758.63	62.34
758.947	62.37
759.264	62.38
759.58	62.39
759.896	62.4
760.213	62.4
760.529	62.43
760.846	62.46
761.162	62.48
761.478	62.49
761.794	62.46
762.11	62.46
762.426	62.46
762.743	62.47
763.059	62.49
763.375	62.48
763.69	62.51
764.006	62.51
764.322	62.52
764.638	62.52
764.954	62.53
765.27	62.54
765.585	62.57
765.901	62.59
766.216	62.59
766.532	62.56
766.848	62.55
767.163	62.54
767.478	62.51
767.794	62.52
768.109	62.53
768.424	62.53
768.74	62.51
769.055	62.47
769.37	62.44
769.685	62.44
770	62.43
770.315	62.41
770.63	62.36
770.945	62.35
771.26	62.36
771.575	62.37
771.89	62.32
772.205	62.3
772.52	62.33
772.834	62.24
773.149	62.22
773.464	62.16
773.778	62.12
774.093	62.08
774.407	62.08
774.722	62.11
775.036	62.05
775.351	62.09
775.665	62.08
775.979	62.07
776.293	62.05
776.608	62.04
776.922	62.03
777.236	61.99
777.55	61.99
777.864	61.96
778.178	61.93
778.492	61.94
778.806	61.93
779.12	61.89
779.434	61.9
779.747	61.92
780.061	61.92
780.375	61.99
780.689	61.98
781.002	61.98
781.316	61.95
781.629	61.92
781.943	61.94
782.256	62
782.57	62
782.883	61.96
783.196	61.96
783.51	61.97
783.823	61.94
784.136	61.94
784.449	61.91
784.762	61.93
785.075	61.91
785.388	61.87
785.701	61.89
786.014	61.93
786.327	61.98
786.64	61.97
786.953	61.99
787.266	62
787.578	61.99
787.891	62.04
788.204	62.01
788.516	62.02
788.829	62.03
789.141	62.03
789.454	62.04
789.766	62.05
790.079	62.1
790.391	62.11
790.703	62.16
791.016	62.2
791.328	62.19
791.64	62.23
791.952	62.27
792.264	62.31
792.576	62.32
792.888	62.31
793.2	62.32
793.512	62.3
793.824	62.28
794.136	62.29
794.448	62.34
794.76	62.32
795.071	62.29
795.383	62.25
795.695	62.24
796.006	62.2
796.318	62.19
796.629	62.21
796.941	62.21
797.252	62.23
797.564	62.22
797.875	62.16
798.186	62.15
798.497	62.21
798.809	62.18
799.12	62.13
799.431	62.13
799.742	62.11
800.053	62.14
800.364	62.18
800.675	62.17
800.986	62.1
801.297	62.12
801.608	62.12
801.918	62.17
802.229	62.15
802.54	62.11
802.851	62.07
803.161	62.08
803.472	62.02
803.782	62.01
804.093	62.02
804.403	61.91
804.714	61.94
805.024	61.93
805.334	61.89
805.645	61.86
805.955	61.78
806.265	61.78
806.575	61.76
806.885	61.75
807.195	61.74
807.505	61.75
807.815	61.82
808.125	61.88
808.435	61.89
808.745	61.95
809.055	61.92
809.365	61.94
809.674	61.84
809.984	61.84
810.294	61.87
810.603	61.96
810.913	62.03
811.222	61.96
811.532	61.96
811.841	61.96
812.151	61.98
812.46	62.04
812.769	61.96
813.079	61.96
813.388	61.97
813.697	62.04
814.006	62.04
814.315	62.05
814.624	62.07
814.933	62.12
815.242	62.17
815.551	62.21
815.86	62.27
816.169	62.32
816.478	62.42
816.786	62.5
817.095	62.52
817.404	62.49
817.712	62.5
818.021	62.53
818.33	62.53
818.638	62.62
818.947	62.67
819.255	62.69
819.563	62.67
819.872	62.73
820.18	62.82
820.488	62.85
820.796	62.87
821.105	62.87
821.413	62.86
821.721	62.89
822.029	62.87
822.337	62.9
822.645	62.88
822.953	62.87
823.26	62.86
823.568	62.86
823.876	62.87
824.184	62.86
824.491	62.9
824.799	62.93
825.107	62.92
825.414	62.94
825.722	62.92
826.029	62.96
826.337	62.96
826.644	62.95
826.951	62.96
827.259	62.97
827.566	62.94
827.873	62.95
828.18	62.93
828.488	62.93
828.795	62.94
829.102	62.91
829.409	62.88
829.716	62.88
830.023	62.89
830.329	62.88
830.636	62.88
830.943	62.92
831.25	62.89
831.557	62.87
831.863	62.88
832.17	62.95
832.476	62.88
832.783	62.79
833.089	62.73
833.396	62.69
833.702	62.68
834.009	62.68
834.315	62.63
834.621	62.67
834.928	62.62
835.234	62.68
835.54	62.7
835.846	62.71
836.152	62.72
836.458	62.73
836.764	62.74
837.07	62.65
837.376	62.57
837.682	62.54
837.988	62.5
838.293	62.51
838.599	62.43
838.905	62.39
839.211	62.37
839.516	62.31
839.822	62.25
840.127	62.33
840.433	62.31
840.738	62.37
841.044	62.35
841.349	62.31
841.654	62.27
841.959	62.23
842.265	62.27
842.57	62.19
842.875	62.2
843.18	62.14
843.485	62.06
843.79	61.99
844.095	62.02
844.4	61.99
844.705	61.94
845.01	61.87
845.315	61.82
845.619	61.72
845.924	61.74
846.229	61.69
846.533	61.67
846.838	61.76
847.142	61.65
847.447	61.72
847.751	61.59
848.056	61.5
848.36	61.5
848.664	61.32
848.969	61.39
849.273	61.31
849.577	61.41
849.881	61.4
850.185	61.44
850.489	61.48
850.794	61.45
851.097	61.59
851.401	61.61
851.705	61.61
852.009	61.68
852.313	61.76
852.617	61.73
852.92	61.71
853.224	61.71
853.528	61.71
853.831	61.77
854.135	61.89
854.438	62.11
854.742	62.09
855.045	62.37
855.349	62.39
855.652	62.48
855.955	62.4
856.259	62.61
856.562	62.51
856.865	62.54
857.168	62.5
857.471	62.5
857.774	62.65
858.077	62.79
858.38	62.74
858.683	62.88
858.986	63.04
859.289	62.84
859.592	62.84
859.894	62.86
860.197	62.87
860.5	63.01
860.802	63.22
861.105	63.15
861.407	62.96
861.71	63.11
862.012	62.99
862.315	63.06
862.617	62.98
862.919	63
863.222	62.9
863.524	62.58
863.826	62.64
864.128	62.59
864.43	62.73
864.732	62.69
865.034	62.63
865.336	62.63
865.638	62.67
865.94	62.48
866.242	62.36
866.544	62.56
866.846	62.48
867.147	62.35
867.449	62.15
867.751	61.98
868.052	61.93
868.354	62.05
868.655	62.07
868.957	61.97
869.258	61.94
869.56	61.96
869.861	62.14
870.162	62.04
870.463	61.99
870.765	62
871.066	61.88
871.367	61.77
871.668	61.81
871.969	61.91
872.27	61.88
872.571	61.84
872.872	61.77
873.173	61.59
873.473	61.69
873.774	61.81
874.075	61.7
874.376	61.75
874.676	61.7
874.977	61.76
875.277	61.68
875.578	61.84
875.878	62.06
876.179	62.05
876.479	62.25
876.78	61.96
877.08	61.98
877.38	61.93
877.68	61.93
877.981	61.79
878.281	62
878.581	62.18
