Data from UWBM59058_Reflection_00007.txt Node
Date: Sun May 02 12:59:00 EDT 2021
User: vgr7
Spectrometer: USB2G7710
Scans to average: 10
Trigger mode: 4
Integration Time (sec): 1.000000E-1
Electric dark correction enabled: true
Boxcar width: 20
XAxis mode: Wavelengths
Number of Pixels in Spectrum: 2048
>>>>>Begin Spectral Data<<<<<
177.721	100.24
178.105	99.53
178.488	98.31
178.871	98.14
179.254	97.86
179.636	93.52
180.019	91.36
180.402	90.58
180.785	87.5
181.168	85.72
181.55	84.9
181.933	115.17
182.316	117.49
182.698	118.56
183.081	119.05
183.463	119.99
183.846	121.89
184.228	123.11
184.611	124.59
184.993	127.08
185.376	130.77
185.758	-117.23
186.14	-57.51
186.522	-19.91
186.904	-2.75
187.287	8.38
187.669	13.06
188.051	12.87
188.433	17.94
188.815	12.09
189.197	13.56
189.579	16.56
189.961	15.55
190.342	13.36
190.724	14.72
191.106	12.66
191.488	12.42
191.869	7.04
192.251	8.98
192.633	7.61
193.014	5.01
193.396	5.97
193.777	12.9
194.159	13.88
194.54	12.49
194.922	13.41
195.303	17.79
195.684	18.96
196.065	17.29
196.447	15.7
196.828	14.38
197.209	15.62
197.59	8.44
197.971	9.3
198.352	10.76
198.733	13.17
199.114	11.83
199.495	11.15
199.876	10.11
200.257	9.44
200.638	8.07
201.018	3.02
201.399	1.23
201.78	-0.21
202.16	-0.95
202.541	-0.33
202.922	-0.72
203.302	-5.18
203.683	-6.73
204.063	-7.72
204.444	-4.79
204.824	-1.85
205.204	0.32
205.585	8.6
205.965	8.14
206.345	10.64
206.725	5.51
207.106	7
207.486	7.71
207.866	7.28
208.246	7.61
208.626	11.48
209.006	16.83
209.386	12.68
209.766	12.67
210.145	12.07
210.525	10.7
210.905	10.9
211.285	11.83
211.664	12.37
212.044	14.21
212.424	13.46
212.803	7.93
213.183	9.56
213.562	9.39
213.942	9
214.321	6.37
214.701	6.12
215.08	8.77
215.459	10.03
215.838	8.85
216.218	9.32
216.597	7.69
216.976	4.77
217.355	6.29
217.734	7.1
218.113	7.4
218.492	9.56
218.871	10.45
219.25	12.41
219.629	10.76
220.008	10.2
220.387	10.54
220.766	10.03
221.144	9.92
221.523	11.64
221.902	11.5
222.28	11.78
222.659	12.01
223.037	11.19
223.416	11.99
223.794	11.81
224.173	10.8
224.551	9.88
224.929	10.25
225.308	10.96
225.686	10.42
226.064	10.53
226.442	10.2
226.821	9.64
227.199	8.74
227.577	7.94
227.955	7.53
228.333	7.19
228.711	7.19
229.089	7.33
229.467	6.61
229.845	7.13
230.222	6.95
230.6	7.32
230.978	7.17
231.356	6.69
231.733	6.46
232.111	6.48
232.488	6.12
232.866	6.05
233.243	5.59
233.621	5.79
233.998	5.28
234.376	5.58
234.753	5.57
235.13	5.72
235.508	6.13
235.885	6.12
236.262	6.12
236.639	6.06
237.016	5.87
237.393	5.74
237.77	5.53
238.147	5.46
238.524	5.5
238.901	5.43
239.278	5.46
239.655	5.42
240.032	5.33
240.409	5.35
240.785	5.28
241.162	5.42
241.539	5.33
241.915	5.34
242.292	5.32
242.668	5.27
243.045	5.22
243.421	5.12
243.798	5.08
244.174	5.02
244.551	4.97
244.927	4.8
245.303	4.73
245.679	4.77
246.056	4.71
246.432	4.7
246.808	4.48
247.184	4.47
247.56	4.44
247.936	4.49
248.312	4.47
248.688	4.51
249.064	4.44
249.44	4.44
249.815	4.41
250.191	4.36
250.567	4.31
250.943	4.41
251.318	4.37
251.694	4.28
252.069	4.21
252.445	4.22
252.82	4.32
253.196	4.35
253.571	4.3
253.947	4.39
254.322	4.35
254.697	4.49
255.073	4.48
255.448	4.47
255.823	4.44
256.198	4.38
256.573	4.17
256.948	4.16
257.323	4.15
257.698	4.1
258.073	4.09
258.448	3.99
258.823	3.98
259.198	3.98
259.573	4.01
259.948	4.05
260.322	4.02
260.697	4.01
261.072	4.02
261.446	4
261.821	3.97
262.195	3.95
262.57	3.95
262.944	3.93
263.319	3.89
263.693	3.92
264.067	3.94
264.442	4.05
264.816	4.03
265.19	4.01
265.564	4.05
265.938	4.03
266.313	4.09
266.687	4.06
267.061	4.08
267.435	4.09
267.809	4.08
268.183	4.07
268.556	4.07
268.93	4.07
269.304	4.04
269.678	4.01
270.051	4
270.425	3.99
270.799	4.01
271.172	4.02
271.546	4.01
271.919	4.03
272.293	4.01
272.666	4
273.04	4.03
273.413	3.97
273.787	3.96
274.16	3.97
274.533	3.99
274.906	3.98
275.279	3.99
275.653	3.97
276.026	3.97
276.399	3.91
276.772	3.9
277.145	3.93
277.518	3.94
277.891	3.94
278.263	3.96
278.636	3.96
279.009	3.97
279.382	3.95
279.755	3.89
280.127	3.92
280.5	3.93
280.872	3.92
281.245	4.03
281.617	4.04
281.99	4.07
282.362	4.1
282.735	4.08
283.107	4.08
283.479	4.1
283.852	4.13
284.224	4.16
284.596	4.14
284.968	4.02
285.34	4
285.713	4
286.085	3.93
286.457	3.92
286.829	3.92
287.201	3.92
287.572	3.99
287.944	4.01
288.316	4.04
288.688	4.08
289.06	4.09
289.431	4.09
289.803	4.1
290.175	4.12
290.546	4.14
290.918	4.16
291.289	4.13
291.661	4.16
292.032	4.13
292.403	4.16
292.775	4.26
293.146	4.27
293.517	4.33
293.889	4.42
294.26	4.43
294.631	4.47
295.002	4.54
295.373	4.59
295.744	4.58
296.115	4.62
296.486	4.57
296.857	4.58
297.228	4.57
297.599	4.58
297.97	4.59
298.34	4.63
298.711	4.59
299.082	4.6
299.452	4.65
299.823	4.71
300.194	4.74
300.564	4.76
300.935	4.76
301.305	4.76
301.676	4.77
302.046	4.79
302.416	4.83
302.787	4.86
303.157	4.82
303.527	4.85
303.897	4.89
304.267	4.93
304.637	4.98
305.008	5.02
305.378	5.08
305.748	5.12
306.117	5.23
306.487	5.34
306.857	5.44
307.227	5.48
307.597	5.51
307.967	5.55
308.336	5.6
308.706	5.64
309.076	5.67
309.445	5.71
309.815	5.61
310.184	5.65
310.554	5.62
310.923	5.69
311.293	5.73
311.662	5.77
312.031	5.81
312.401	5.85
312.77	5.86
313.139	5.89
313.508	5.95
313.877	5.93
314.246	5.96
314.616	5.97
314.985	5.96
315.353	6.01
315.722	6.07
316.091	6.12
316.46	6.17
316.829	6.24
317.198	6.32
317.567	6.49
317.935	6.53
318.304	6.63
318.672	6.71
319.041	6.77
319.41	6.83
319.778	6.91
320.147	6.98
320.515	7.03
320.883	7.06
321.252	7.02
321.62	7.12
321.988	7.16
322.357	7.21
322.725	7.32
323.093	7.35
323.461	7.39
323.829	7.43
324.197	7.47
324.565	7.5
324.933	7.56
325.301	7.58
325.669	7.62
326.037	7.67
326.405	7.67
326.772	7.7
327.14	7.73
327.508	7.75
327.875	7.81
328.243	7.86
328.61	7.84
328.978	7.89
329.346	7.92
329.713	7.92
330.08	7.95
330.448	7.98
330.815	8
331.182	8.04
331.55	8.07
331.917	8.11
332.284	8.16
332.651	8.22
333.018	8.25
333.385	8.28
333.752	8.32
334.119	8.36
334.486	8.4
334.853	8.4
335.22	8.43
335.587	8.44
335.954	8.49
336.32	8.55
336.687	8.57
337.054	8.59
337.42	8.62
337.787	8.64
338.153	8.69
338.52	8.75
338.886	8.8
339.253	8.82
339.619	8.83
339.986	8.83
340.352	8.84
340.718	8.87
341.084	8.88
341.451	8.89
341.817	8.89
342.183	8.9
342.549	8.94
342.915	8.96
343.281	8.99
343.647	9.01
344.013	9.05
344.379	9.07
344.745	9.09
345.11	9.1
345.476	9.13
345.842	9.13
346.208	9.12
346.573	9.14
346.939	9.16
347.304	9.16
347.67	9.15
348.035	9.18
348.401	9.17
348.766	9.2
349.132	9.2
349.497	9.23
349.862	9.24
350.228	9.26
350.593	9.27
350.958	9.25
351.323	9.23
351.688	9.23
352.053	9.22
352.418	9.22
352.783	9.21
353.148	9.19
353.513	9.17
353.878	9.17
354.243	9.16
354.608	9.15
354.972	9.14
355.337	9.13
355.702	9.1
356.066	9.09
356.431	9.08
356.795	9.06
357.16	9.03
357.524	9.01
357.889	8.99
358.253	8.98
358.618	8.97
358.982	8.96
359.346	8.95
359.71	8.93
360.075	8.91
360.439	8.89
360.803	8.87
361.167	8.84
361.531	8.82
361.895	8.8
362.259	8.77
362.623	8.74
362.987	8.71
363.351	8.69
363.714	8.66
364.078	8.62
364.442	8.59
364.806	8.56
365.169	8.51
365.533	8.46
365.896	8.42
366.26	8.39
366.623	8.34
366.987	8.3
367.35	8.27
367.714	8.24
368.077	8.2
368.44	8.15
368.803	8.1
369.167	8.05
369.53	8
369.893	7.97
370.256	7.92
370.619	7.88
370.982	7.82
371.345	7.75
371.708	7.71
372.071	7.66
372.434	7.61
372.797	7.58
373.159	7.54
373.522	7.49
373.885	7.42
374.247	7.36
374.61	7.31
374.973	7.25
375.335	7.2
375.698	7.15
376.06	7.09
376.423	7.04
376.785	7
377.147	6.95
377.51	6.91
377.872	6.86
378.234	6.82
378.596	6.79
378.958	6.76
379.321	6.71
379.683	6.68
380.045	6.63
380.407	6.59
380.769	6.54
381.13	6.51
381.492	6.47
381.854	6.44
382.216	6.4
382.578	6.36
382.939	6.33
383.301	6.29
383.663	6.25
384.024	6.21
384.386	6.17
384.747	6.13
385.109	6.08
385.47	6.05
385.832	6.01
386.193	5.97
386.554	5.93
386.916	5.91
387.277	5.87
387.638	5.85
387.999	5.82
388.36	5.79
388.721	5.77
389.082	5.74
389.443	5.71
389.804	5.69
390.165	5.66
390.526	5.63
390.887	5.61
391.248	5.57
391.609	5.55
391.969	5.52
392.33	5.5
392.691	5.47
393.051	5.44
393.412	5.41
393.772	5.39
394.133	5.36
394.493	5.33
394.854	5.3
395.214	5.27
395.574	5.24
395.935	5.22
396.295	5.19
396.655	5.16
397.015	5.13
397.376	5.1
397.736	5.08
398.096	5.06
398.456	5.03
398.816	5.03
399.176	4.99
399.535	4.97
399.895	4.96
400.255	4.94
400.615	4.92
400.975	4.9
401.334	4.88
401.694	4.86
402.054	4.84
402.413	4.8
402.773	4.78
403.132	4.77
403.492	4.76
403.851	4.74
404.211	4.73
404.57	4.72
404.929	4.72
405.288	4.7
405.648	4.69
406.007	4.69
406.366	4.68
406.725	4.68
407.084	4.66
407.443	4.65
407.802	4.63
408.161	4.62
408.52	4.6
408.879	4.59
409.238	4.59
409.596	4.58
409.955	4.58
410.314	4.57
410.673	4.56
411.031	4.56
411.39	4.56
411.748	4.56
412.107	4.56
412.465	4.56
412.824	4.57
413.182	4.58
413.54	4.6
413.899	4.61
414.257	4.63
414.615	4.67
414.974	4.69
415.332	4.72
415.69	4.76
416.048	4.78
416.406	4.82
416.764	4.84
417.122	4.87
417.48	4.9
417.838	4.92
418.195	4.93
418.553	4.95
418.911	4.96
419.269	4.95
419.626	4.95
419.984	4.93
420.342	4.91
420.699	4.88
421.057	4.86
421.414	4.84
421.772	4.82
422.129	4.81
422.486	4.8
422.844	4.79
423.201	4.79
423.558	4.78
423.915	4.77
424.273	4.76
424.63	4.76
424.987	4.75
425.344	4.75
425.701	4.74
426.058	4.73
426.415	4.73
426.772	4.72
427.128	4.71
427.485	4.7
427.842	4.69
428.199	4.67
428.555	4.65
428.912	4.63
429.269	4.59
429.625	4.57
429.982	4.54
430.338	4.51
430.695	4.48
431.051	4.44
431.407	4.42
431.764	4.4
432.12	4.37
432.476	4.36
432.832	4.35
433.189	4.35
433.545	4.36
433.901	4.37
434.257	4.39
434.613	4.42
434.969	4.44
435.325	4.47
435.681	4.51
436.036	4.52
436.392	4.55
436.748	4.55
437.104	4.56
437.459	4.57
437.815	4.59
438.171	4.62
438.526	4.64
438.882	4.67
439.237	4.71
439.593	4.74
439.948	4.77
440.304	4.81
440.659	4.84
441.014	4.85
441.369	4.88
441.725	4.89
442.08	4.91
442.435	4.92
442.79	4.92
443.145	4.92
443.5	4.92
443.855	4.92
444.21	4.92
444.565	4.91
444.92	4.9
445.275	4.89
445.629	4.87
445.984	4.87
446.339	4.85
446.693	4.85
447.048	4.83
447.403	4.81
447.757	4.79
448.112	4.77
448.466	4.74
448.82	4.72
449.175	4.7
449.529	4.68
449.883	4.66
450.238	4.63
450.592	4.63
450.946	4.62
451.3	4.62
451.654	4.62
452.008	4.62
452.362	4.62
452.716	4.62
453.07	4.62
453.424	4.61
453.778	4.61
454.132	4.59
454.486	4.58
454.839	4.56
455.193	4.54
455.547	4.53
455.9	4.49
456.254	4.47
456.607	4.43
456.961	4.41
457.314	4.39
457.668	4.38
458.021	4.38
458.375	4.37
458.728	4.38
459.081	4.38
459.434	4.39
459.787	4.4
460.141	4.41
460.494	4.42
460.847	4.43
461.2	4.43
461.553	4.44
461.906	4.45
462.259	4.46
462.611	4.46
462.964	4.47
463.317	4.48
463.67	4.49
464.022	4.49
464.375	4.5
464.728	4.5
465.08	4.5
465.433	4.51
465.785	4.51
466.138	4.5
466.49	4.49
466.843	4.48
467.195	4.46
467.547	4.45
467.899	4.43
468.252	4.4
468.604	4.39
468.956	4.37
469.308	4.36
469.66	4.36
470.012	4.35
470.364	4.36
470.716	4.37
471.068	4.4
471.42	4.42
471.772	4.45
472.123	4.46
472.475	4.48
472.827	4.49
473.178	4.5
473.53	4.51
473.882	4.53
474.233	4.55
474.585	4.59
474.936	4.65
475.288	4.74
475.639	4.86
475.99	5
476.342	5.16
476.693	5.34
477.044	5.5
477.395	5.68
477.746	5.86
478.097	6.04
478.448	6.23
478.8	6.41
479.15	6.57
479.501	6.72
479.852	6.86
480.203	6.99
480.554	7.11
480.905	7.23
481.255	7.35
481.606	7.45
481.957	7.54
482.307	7.64
482.658	7.73
483.009	7.82
483.359	7.91
483.709	7.99
484.06	8.06
484.41	8.14
484.761	8.21
485.111	8.28
485.461	8.35
485.811	8.41
486.162	8.47
486.512	8.52
486.862	8.56
487.212	8.59
487.562	8.62
487.912	8.63
488.262	8.63
488.612	8.63
488.961	8.61
489.311	8.58
489.661	8.51
490.011	8.42
490.36	8.31
490.71	8.18
491.06	8.04
491.409	7.9
491.759	7.75
492.108	7.59
492.458	7.44
492.807	7.27
493.157	7.1
493.506	6.94
493.855	6.79
494.204	6.65
494.554	6.52
494.903	6.41
495.252	6.3
495.601	6.19
495.95	6.09
496.299	6
496.648	5.92
496.997	5.83
497.346	5.76
497.695	5.69
498.043	5.64
498.392	5.58
498.741	5.52
499.09	5.47
499.438	5.42
499.787	5.38
500.135	5.35
500.484	5.33
500.832	5.33
501.181	5.33
501.529	5.35
501.878	5.39
502.226	5.43
502.574	5.48
502.923	5.54
503.271	5.61
503.619	5.68
503.967	5.75
504.315	5.82
504.663	5.9
505.011	5.98
505.359	6.05
505.707	6.14
506.055	6.23
506.403	6.32
506.751	6.42
507.098	6.51
507.446	6.62
507.794	6.74
508.141	6.87
508.489	7
508.837	7.14
509.184	7.28
509.531	7.42
509.879	7.57
510.226	7.75
510.574	7.92
510.921	8.1
511.268	8.29
511.616	8.49
511.963	8.69
512.31	8.9
512.657	9.11
513.004	9.33
513.351	9.53
513.698	9.73
514.045	9.92
514.392	10.1
514.739	10.28
515.086	10.45
515.432	10.63
515.779	10.81
516.126	11.01
516.473	11.22
516.819	11.44
517.166	11.68
517.512	11.94
517.859	12.21
518.205	12.5
518.552	12.81
518.898	13.16
519.245	13.55
519.591	14.01
519.937	14.54
520.283	15.15
520.629	15.82
520.976	16.52
521.322	17.24
521.668	17.97
522.014	18.7
522.36	19.43
522.706	20.16
523.052	20.87
523.398	21.54
523.743	22.17
524.089	22.75
524.435	23.29
524.781	23.83
525.126	24.35
525.472	24.87
525.817	25.38
526.163	25.88
526.509	26.37
526.854	26.86
527.199	27.34
527.545	27.82
527.89	28.32
528.235	28.81
528.581	29.27
528.926	29.71
529.271	30.13
529.616	30.53
529.961	30.89
530.306	31.22
530.651	31.53
530.996	31.82
531.341	32.1
531.686	32.36
532.031	32.6
532.376	32.87
532.721	33.16
533.065	33.47
533.41	33.8
533.755	34.09
534.099	34.33
534.444	34.54
534.788	34.71
535.133	34.88
535.477	35.02
535.822	35.12
536.166	35.18
536.51	35.19
536.855	35.14
537.199	35.05
537.543	34.97
537.887	34.92
538.231	34.9
538.576	34.88
538.92	34.85
539.264	34.82
539.608	34.76
539.951	34.67
540.295	34.58
540.639	34.48
540.983	34.35
541.327	34.22
541.671	34.08
542.014	33.96
542.358	33.85
542.701	33.83
543.045	33.86
543.389	33.93
543.732	34.01
544.075	34.11
544.419	34.23
544.762	34.34
545.105	34.48
545.449	34.63
545.792	34.78
546.135	34.93
546.478	35.05
546.821	35.12
547.165	35.11
547.508	35.05
547.851	34.95
548.194	34.8
548.536	34.61
548.879	34.4
549.222	34.15
549.565	33.9
549.908	33.67
550.25	33.45
550.593	33.29
550.936	33.2
551.278	33.17
551.621	33.17
551.963	33.19
552.306	33.23
552.648	33.3
552.991	33.4
553.333	33.52
553.675	33.68
554.017	33.87
554.36	34.08
554.702	34.32
555.044	34.6
555.386	34.93
555.728	35.25
556.07	35.54
556.412	35.84
556.754	36.04
557.096	36.23
557.438	36.42
557.78	36.61
558.121	36.8
558.463	36.99
558.805	37.18
559.147	37.37
559.488	37.56
559.83	37.75
560.171	37.94
560.513	38.12
560.854	38.28
561.196	38.45
561.537	38.63
561.878	38.79
562.22	38.95
562.561	39.1
562.902	39.27
563.243	39.44
563.584	39.6
563.925	39.75
564.266	39.91
564.607	40.07
564.948	40.23
565.289	40.39
565.63	40.54
565.971	40.7
566.312	40.84
566.653	41
566.993	41.15
567.334	41.29
567.675	41.43
568.015	41.57
568.356	41.71
568.696	41.83
569.037	41.96
569.377	42.08
569.718	42.2
570.058	42.31
570.398	42.41
570.739	42.52
571.079	42.62
571.419	42.71
571.759	42.8
572.099	42.9
572.439	42.99
572.779	43.07
573.119	43.16
573.459	43.24
573.799	43.32
574.139	43.4
574.479	43.48
574.819	43.56
575.158	43.64
575.498	43.73
575.838	43.8
576.177	43.89
576.517	43.97
576.856	44.04
577.196	44.1
577.535	44.17
577.875	44.24
578.214	44.31
578.553	44.37
578.893	44.44
579.232	44.5
579.571	44.57
579.91	44.63
580.25	44.7
580.589	44.76
580.928	44.83
581.267	44.88
581.606	44.95
581.945	45.02
582.283	45.08
582.622	45.16
582.961	45.21
583.3	45.29
583.639	45.36
583.977	45.44
584.316	45.52
584.654	45.59
584.993	45.66
585.332	45.73
585.67	45.79
586.008	45.86
586.347	45.94
586.685	46.03
587.024	46.1
587.362	46.17
587.7	46.25
588.038	46.34
588.376	46.42
588.715	46.51
589.053	46.6
589.391	46.69
589.729	46.78
590.067	46.87
590.404	46.95
590.742	47.03
591.08	47.11
591.418	47.18
591.756	47.25
592.093	47.32
592.431	47.39
592.769	47.46
593.106	47.52
593.444	47.58
593.781	47.62
594.119	47.68
594.456	47.73
594.793	47.79
595.131	47.85
595.468	47.91
595.805	47.96
596.143	48.03
596.48	48.11
596.817	48.19
597.154	48.26
597.491	48.34
597.828	48.41
598.165	48.47
598.502	48.54
598.839	48.6
599.176	48.67
599.512	48.73
599.849	48.78
600.186	48.83
600.523	48.87
600.859	48.92
601.196	48.96
601.532	49.01
601.869	49.06
602.205	49.1
602.542	49.14
602.878	49.19
603.215	49.22
603.551	49.26
603.887	49.29
604.223	49.32
604.56	49.37
604.896	49.4
605.232	49.43
605.568	49.46
605.904	49.49
606.24	49.52
606.576	49.55
606.912	49.59
607.248	49.62
607.583	49.65
607.919	49.66
608.255	49.68
608.591	49.71
608.926	49.72
609.262	49.75
609.597	49.77
609.933	49.78
610.268	49.78
610.604	49.79
610.939	49.8
611.275	49.8
611.61	49.8
611.945	49.81
612.281	49.82
612.616	49.84
612.951	49.84
613.286	49.86
613.621	49.86
613.956	49.88
614.291	49.9
614.626	49.9
614.961	49.92
615.296	49.94
615.631	49.95
615.966	49.96
616.3	49.97
616.635	49.97
616.97	49.97
617.304	49.99
617.639	50.01
617.973	50.03
618.308	50.05
618.642	50.07
618.977	50.09
619.311	50.13
619.646	50.17
619.98	50.21
620.314	50.23
620.648	50.27
620.983	50.3
621.317	50.33
621.651	50.38
621.985	50.41
622.319	50.44
622.653	50.48
622.987	50.5
623.321	50.53
623.655	50.58
623.988	50.61
624.322	50.64
624.656	50.67
624.99	50.69
625.323	50.71
625.657	50.74
625.99	50.76
626.324	50.79
626.657	50.81
626.991	50.85
627.324	50.89
627.658	50.91
627.991	50.94
628.324	50.97
628.657	51.01
628.991	51.05
629.324	51.07
629.657	51.1
629.99	51.13
630.323	51.15
630.656	51.19
630.989	51.2
631.322	51.22
631.655	51.24
631.987	51.26
632.32	51.28
632.653	51.3
632.986	51.31
633.318	51.33
633.651	51.34
633.984	51.35
634.316	51.37
634.649	51.39
634.981	51.41
635.313	51.42
635.646	51.43
635.978	51.45
636.31	51.46
636.643	51.46
636.975	51.48
637.307	51.49
637.639	51.5
637.971	51.52
638.303	51.53
638.635	51.55
638.967	51.59
639.299	51.61
639.631	51.63
639.963	51.66
640.295	51.68
640.626	51.7
640.958	51.72
641.29	51.74
641.621	51.76
641.953	51.79
642.285	51.81
642.616	51.81
642.948	51.83
643.279	51.86
643.61	51.88
643.942	51.91
644.273	51.93
644.604	51.95
644.936	51.99
645.267	52.02
645.598	52.04
645.929	52.06
646.26	52.1
646.591	52.12
646.922	52.13
647.253	52.16
647.584	52.17
647.915	52.2
648.245	52.22
648.576	52.24
648.907	52.26
649.238	52.28
649.568	52.3
649.899	52.32
650.229	52.34
650.56	52.37
650.89	52.4
651.221	52.43
651.551	52.46
651.882	52.5
652.212	52.53
652.542	52.54
652.872	52.57
653.203	52.59
653.533	52.61
653.863	52.64
654.193	52.65
654.523	52.66
654.853	52.67
655.183	52.69
655.513	52.69
655.843	52.72
656.172	52.76
656.502	52.77
656.832	52.78
657.162	52.79
657.491	52.8
657.821	52.81
658.15	52.81
658.48	52.81
658.809	52.81
659.139	52.82
659.468	52.84
659.798	52.84
660.127	52.86
660.456	52.9
660.785	52.91
661.115	52.93
661.444	52.93
661.773	52.96
662.102	52.97
662.431	52.98
662.76	52.99
663.089	53.01
663.418	53.03
663.747	53.05
664.076	53.05
664.404	53.08
664.733	53.09
665.062	53.11
665.39	53.11
665.719	53.14
666.048	53.15
666.376	53.14
666.705	53.15
667.033	53.16
667.362	53.15
667.69	53.18
668.018	53.19
668.347	53.21
668.675	53.22
669.003	53.25
669.331	53.26
669.659	53.27
669.987	53.3
670.315	53.31
670.643	53.34
670.971	53.35
671.299	53.37
671.627	53.4
671.955	53.42
672.283	53.45
672.61	53.48
672.938	53.51
673.266	53.52
673.593	53.55
673.921	53.59
674.249	53.61
674.576	53.64
674.904	53.68
675.231	53.69
675.558	53.73
675.886	53.76
676.213	53.79
676.54	53.8
676.867	53.82
677.195	53.86
677.522	53.9
677.849	53.91
678.176	53.92
678.503	53.96
678.83	53.98
679.157	53.97
679.484	53.97
679.81	53.99
680.137	54.02
680.464	54.05
680.791	54.09
681.117	54.09
681.444	54.11
681.771	54.13
682.097	54.15
682.424	54.16
682.75	54.16
683.077	54.19
683.403	54.2
683.729	54.22
684.056	54.23
684.382	54.26
684.708	54.29
685.034	54.31
685.36	54.32
685.686	54.34
686.012	54.37
686.339	54.38
686.664	54.43
686.99	54.42
687.316	54.42
687.642	54.46
687.968	54.47
688.294	54.49
688.619	54.52
688.945	54.54
689.271	54.54
689.596	54.56
689.922	54.58
690.247	54.58
690.573	54.6
690.898	54.62
691.224	54.63
691.549	54.66
691.874	54.64
692.2	54.66
692.525	54.71
692.85	54.72
693.175	54.75
693.5	54.78
693.825	54.77
694.15	54.75
694.475	54.77
694.8	54.79
695.125	54.81
695.45	54.83
695.775	54.84
696.099	54.84
696.424	54.83
696.749	54.85
697.073	54.85
697.398	54.85
697.723	54.84
698.047	54.84
698.372	54.85
698.696	54.85
699.02	54.85
699.345	54.86
699.669	54.87
699.993	54.86
700.318	54.87
700.642	54.87
700.966	54.87
701.29	54.91
701.614	54.88
701.938	54.88
702.262	54.88
702.586	54.89
702.91	54.89
703.234	54.92
703.557	54.93
703.881	54.94
704.205	54.95
704.529	54.99
704.852	55.01
705.176	55.04
705.499	55.08
705.823	55.08
706.146	55.11
706.47	55.13
706.793	55.13
707.117	55.2
707.44	55.22
707.763	55.23
708.086	55.25
708.409	55.24
708.733	55.23
709.056	55.26
709.379	55.29
709.702	55.34
710.025	55.33
710.348	55.29
710.671	55.32
710.993	55.36
711.316	55.38
711.639	55.4
711.962	55.43
712.284	55.46
712.607	55.49
712.93	55.51
713.252	55.55
713.575	55.57
713.897	55.57
714.22	55.58
714.542	55.6
714.864	55.67
715.187	55.72
715.509	55.73
715.831	55.75
716.153	55.78
716.475	55.77
716.798	55.77
717.12	55.88
717.442	55.91
717.764	55.91
718.085	55.88
718.407	55.89
718.729	55.9
719.051	55.91
719.373	55.93
719.695	55.94
720.016	55.94
720.338	55.95
720.659	55.96
720.981	56
721.302	56.03
721.624	56.05
721.945	56.07
722.267	56.08
722.588	56.08
722.909	56.09
723.231	56.14
723.552	56.12
723.873	56.18
724.194	56.15
724.515	56.19
724.836	56.27
725.157	56.25
725.478	56.28
725.799	56.29
726.12	56.3
726.441	56.3
726.762	56.33
727.083	56.35
727.403	56.34
727.724	56.32
728.045	56.29
728.365	56.28
728.686	56.33
729.006	56.35
729.327	56.34
729.647	56.37
729.967	56.38
730.288	56.35
730.608	56.34
730.928	56.36
731.249	56.34
731.569	56.36
731.889	56.35
732.209	56.35
732.529	56.34
732.849	56.36
733.169	56.4
733.489	56.38
733.809	56.39
734.129	56.39
734.448	56.39
734.768	56.39
735.088	56.39
735.408	56.37
735.727	56.37
736.047	56.4
736.366	56.4
736.686	56.41
737.005	56.37
737.325	56.39
737.644	56.36
737.963	56.35
738.283	56.36
738.602	56.3
738.921	56.3
739.24	56.28
739.56	56.26
739.879	56.26
740.198	56.26
740.517	56.28
740.836	56.31
741.155	56.3
741.473	56.32
741.792	56.29
742.111	56.27
742.43	56.28
742.748	56.26
743.067	56.26
743.386	56.32
743.704	56.35
744.023	56.34
744.341	56.36
744.66	56.36
744.978	56.33
745.297	56.34
745.615	56.33
745.933	56.3
746.252	56.27
746.57	56.24
746.888	56.22
747.206	56.21
747.524	56.2
747.842	56.22
748.16	56.25
748.478	56.26
748.796	56.29
749.114	56.24
749.432	56.2
749.749	56.19
750.067	56.22
750.385	56.24
750.703	56.23
751.02	56.22
751.338	56.24
751.655	56.3
751.973	56.3
752.29	56.34
752.608	56.37
752.925	56.39
753.242	56.43
753.56	56.46
753.877	56.47
754.194	56.51
754.511	56.54
754.828	56.58
755.145	56.67
755.462	56.71
755.779	56.75
756.096	56.79
756.413	56.78
756.73	56.8
757.047	56.84
757.364	56.89
757.68	56.94
757.997	57.01
758.314	57.08
758.63	57.14
758.947	57.23
759.264	57.29
759.58	57.3
759.896	57.37
760.213	57.41
760.529	57.45
760.846	57.45
761.162	57.47
761.478	57.47
761.794	57.47
762.11	57.51
762.426	57.57
762.743	57.6
763.059	57.66
763.375	57.67
763.69	57.67
764.006	57.68
764.322	57.7
764.638	57.72
764.954	57.75
765.27	57.74
765.585	57.76
765.901	57.78
766.216	57.75
766.532	57.73
766.848	57.71
767.163	57.69
767.478	57.69
767.794	57.7
768.109	57.66
768.424	57.65
768.74	57.63
769.055	57.61
769.37	57.63
769.685	57.6
770	57.6
770.315	57.58
770.63	57.55
770.945	57.47
771.26	57.42
771.575	57.37
771.89	57.32
772.205	57.31
772.52	57.28
772.834	57.31
773.149	57.29
773.464	57.19
773.778	57.14
774.093	57.15
774.407	57.18
774.722	57.15
775.036	57.15
775.351	57.15
775.665	57.11
775.979	57.02
776.293	57.04
776.608	57.05
776.922	57.03
777.236	57.11
777.55	57.09
777.864	57.13
778.178	57.15
778.492	57.11
778.806	57.1
779.12	57.07
779.434	57.06
779.747	57.05
780.061	57.14
780.375	57.15
780.689	57.13
781.002	57.13
781.316	57.12
781.629	57.21
781.943	57.27
782.256	57.3
782.57	57.36
782.883	57.38
783.196	57.34
783.51	57.37
783.823	57.43
784.136	57.41
784.449	57.48
784.762	57.52
785.075	57.47
785.388	57.47
785.701	57.45
786.014	57.44
786.327	57.55
786.64	57.56
786.953	57.56
787.266	57.6
787.578	57.63
787.891	57.67
788.204	57.63
788.516	57.69
788.829	57.74
789.141	57.74
789.454	57.79
789.766	57.81
790.079	57.81
790.391	57.9
790.703	57.93
791.016	57.91
791.328	57.9
791.64	57.94
791.952	58.03
792.264	58.06
792.576	58.09
792.888	58.06
793.2	58.05
793.512	58.09
793.824	58.11
794.136	58.11
794.448	58.09
794.76	58.1
795.071	58.16
795.383	58.15
795.695	58.18
796.006	58.31
796.318	58.29
796.629	58.31
796.941	58.3
797.252	58.28
797.564	58.26
797.875	58.29
798.186	58.35
798.497	58.38
798.809	58.37
799.12	58.31
799.431	58.3
799.742	58.31
800.053	58.2
800.364	58.28
800.675	58.31
800.986	58.34
801.297	58.4
801.608	58.38
801.918	58.36
802.229	58.34
802.54	58.36
802.851	58.29
803.161	58.22
803.472	58.24
803.782	58.21
804.093	58.31
804.403	58.25
804.714	58.28
805.024	58.27
805.334	58.36
805.645	58.41
805.955	58.43
806.265	58.36
806.575	58.34
806.885	58.33
807.195	58.33
807.505	58.38
807.815	58.31
808.125	58.35
808.435	58.35
808.745	58.28
809.055	58.3
809.365	58.32
809.674	58.35
809.984	58.36
810.294	58.41
810.603	58.38
810.913	58.46
811.222	58.44
811.532	58.48
811.841	58.61
812.151	58.67
812.46	58.64
812.769	58.76
813.079	58.73
813.388	58.7
813.697	58.69
814.006	58.63
814.315	58.74
814.624	58.75
814.933	58.78
815.242	58.78
815.551	58.85
815.86	58.97
816.169	59.06
816.478	59.1
816.786	59.12
817.095	59.2
817.404	59.27
817.712	59.36
818.021	59.33
818.33	59.39
818.638	59.47
818.947	59.49
819.255	59.56
819.563	59.63
819.872	59.71
820.18	59.71
820.488	59.76
820.796	59.73
821.105	59.73
821.413	59.78
821.721	59.82
822.029	59.84
822.337	59.88
822.645	59.87
822.953	59.84
823.26	59.89
823.568	59.9
823.876	59.88
824.184	59.88
824.491	59.87
824.799	59.88
825.107	59.9
825.414	59.91
825.722	59.91
826.029	59.9
826.337	59.89
826.644	59.9
826.951	59.87
827.259	59.86
827.566	59.89
827.873	59.89
828.18	59.89
828.488	59.83
828.795	59.85
829.102	59.84
829.409	59.84
829.716	59.85
830.023	59.84
830.329	59.83
830.636	59.84
830.943	59.88
831.25	59.87
831.557	59.89
831.863	59.87
832.17	59.81
832.476	59.76
832.783	59.77
833.089	59.74
833.396	59.74
833.702	59.72
834.009	59.64
834.315	59.59
834.621	59.6
834.928	59.53
835.234	59.52
835.54	59.53
835.846	59.51
836.152	59.49
836.458	59.51
836.764	59.48
837.07	59.5
837.376	59.4
837.682	59.35
837.988	59.31
838.293	59.33
838.599	59.38
838.905	59.4
839.211	59.43
839.516	59.5
839.822	59.59
840.127	59.53
840.433	59.56
840.738	59.54
841.044	59.59
841.349	59.47
841.654	59.63
841.959	59.61
842.265	59.56
842.57	59.48
842.875	59.42
843.18	59.51
843.485	59.47
843.79	59.47
844.095	59.56
844.4	59.52
844.705	59.61
845.01	59.58
845.315	59.48
845.619	59.4
845.924	59.29
846.229	59.22
846.533	59.25
846.838	59.36
847.142	59.16
847.447	59.27
847.751	59.3
848.056	59.3
848.36	59.2
848.664	59.2
848.969	59.19
849.273	59.09
849.577	59.05
849.881	59.02
850.185	58.97
850.489	59.2
850.794	59.22
851.097	59.29
851.401	59.34
851.705	59.33
852.009	59.46
852.313	59.51
852.617	59.63
852.92	59.64
853.224	59.73
853.528	59.78
853.831	60.05
854.135	59.81
854.438	59.88
854.742	59.96
855.045	60.14
855.349	60.33
855.652	60.32
855.955	60.29
856.259	60.28
856.562	60.37
856.865	60.12
857.168	60.01
857.471	59.87
857.774	59.85
858.077	59.64
858.38	59.71
858.683	59.68
858.986	59.63
859.289	59.78
859.592	60.12
859.894	60.01
860.197	60.1
860.5	60.15
860.802	60.28
861.105	60.4
861.407	60.38
861.71	60.39
862.012	60.15
862.315	60.16
862.617	60.16
862.919	59.97
863.222	59.99
863.524	59.97
863.826	59.98
864.128	60.1
864.43	60.11
864.732	60.03
865.034	60.1
865.336	60.02
865.638	59.9
865.94	59.71
866.242	59.51
866.544	59.3
866.846	59.5
867.147	59.3
867.449	59.21
867.751	59.31
868.052	59.37
868.354	59.2
868.655	59.28
868.957	59.27
869.258	59.45
869.56	59.59
869.861	59.92
870.162	59.94
870.463	59.93
870.765	60.14
871.066	60.13
871.367	60.07
871.668	60.05
871.969	60
872.27	60.17
872.571	60.02
872.872	60.24
873.173	60.13
873.473	60.08
873.774	60.24
874.075	60.23
874.376	60.48
874.676	60.59
874.977	60.51
875.277	60.44
875.578	60.36
875.878	60.14
876.179	60.28
876.479	60.21
876.78	60.07
877.08	60.05
877.38	60.01
877.68	60.21
877.981	60.32
878.281	60.57
878.581	60.73
