Data from UWBM109429_Reflection_00002.txt Node
Date: Sun May 02 13:53:33 EDT 2021
User: vgr7
Spectrometer: USB2G7710
Scans to average: 10
Trigger mode: 4
Integration Time (sec): 1.000000E-1
Electric dark correction enabled: true
Boxcar width: 20
XAxis mode: Wavelengths
Number of Pixels in Spectrum: 2048
>>>>>Begin Spectral Data<<<<<
177.721	44.62
178.105	13.46
178.488	20.71
178.871	19.82
179.254	21.37
179.636	8.26
180.019	4.32
180.402	1.86
180.785	1.14
181.168	-2.3
181.55	-5.19
181.933	-9.11
182.316	-12.55
182.698	-13.2
183.081	-12.87
183.463	-12.55
183.846	-15.15
184.228	-11.38
184.611	-8.19
184.993	-9.94
185.376	-7.45
185.758	-4.24
186.14	-0.22
186.522	1.58
186.904	3.26
187.287	4.09
187.669	5.03
188.051	5.46
188.433	4.29
188.815	2.89
189.197	5.49
189.579	3.76
189.961	1.98
190.342	0.31
190.724	1.02
191.106	-0.5
191.488	-0.4
191.869	-1.39
192.251	-3.46
192.633	-2.53
193.014	-1.95
193.396	-3.39
193.777	0.02
194.159	1.31
194.54	1.21
194.922	0.54
195.303	1.64
195.684	1.89
196.065	1.51
196.447	1.56
196.828	2.89
197.209	2.26
197.59	2.26
197.971	2.35
198.352	4.04
198.733	5.18
199.114	5.46
199.495	7.01
199.876	7.43
200.257	6.86
200.638	7.39
201.018	7.55
201.399	8.23
201.78	7.22
202.16	5.46
202.541	4.55
202.922	4.08
203.302	3.68
203.683	2.33
204.063	2.75
204.444	0.15
204.824	-0.18
205.204	-1.33
205.585	0.28
205.965	2.43
206.345	1.58
206.725	2.7
207.106	4.07
207.486	4.14
207.866	4.69
208.246	2.6
208.626	1.15
209.006	0.39
209.386	-2.22
209.766	-4.3
210.145	-3.4
210.525	-3.2
210.905	-2.84
211.285	-3.95
211.664	-3.72
212.044	-3.25
212.424	-5.31
212.803	-4.88
213.183	-3.84
213.562	-3.28
213.942	-4.49
214.321	-6.2
214.701	-7.46
215.08	-7.79
215.459	-7.63
215.838	-8.08
216.218	-8.53
216.597	-8.18
216.976	-8.23
217.355	-8.02
217.734	-7.29
218.113	-6.82
218.492	-7.86
218.871	-6.84
219.25	-4.94
219.629	-5.7
220.008	-4.18
220.387	-4.68
220.766	-2.85
221.144	-3.12
221.523	-3.37
221.902	-3.58
222.28	-4.15
222.659	-4.45
223.037	-4.48
223.416	-2.95
223.794	-1.95
224.173	-1.31
224.551	-1.05
224.929	0.55
225.308	1.22
225.686	0.98
226.064	1.16
226.442	1.23
226.821	2.12
227.199	2.82
227.577	2.56
227.955	3.43
228.333	3.63
228.711	3.77
229.089	3.87
229.467	4.03
229.845	4.23
230.222	4.42
230.6	4.26
230.978	4.2
231.356	4.36
231.733	4.56
232.111	4.43
232.488	4.43
232.866	4.2
233.243	4.19
233.621	4.35
233.998	4.73
234.376	4.71
234.753	4.51
235.13	4.63
235.508	4.8
235.885	4.86
236.262	4.71
236.639	4.79
237.016	4.87
237.393	5.07
237.77	5.13
238.147	5.12
238.524	5.21
238.901	5.1
239.278	5.2
239.655	5.23
240.032	5.27
240.409	5.25
240.785	5.25
241.162	5.28
241.539	5.29
241.915	5.32
242.292	5.33
242.668	5.3
243.045	5.31
243.421	5.28
243.798	5.27
244.174	5.28
244.551	5.27
244.927	5.28
245.303	5.29
245.679	5.3
246.056	5.26
246.432	5.24
246.808	5.22
247.184	5.2
247.56	5.19
247.936	5.18
248.312	5.17
248.688	5.17
249.064	5.16
249.44	5.17
249.815	5.13
250.191	5.1
250.567	5.15
250.943	5.11
251.318	5.1
251.694	5.13
252.069	5.12
252.445	5.12
252.82	5.1
253.196	5.09
253.571	5.09
253.947	5.08
254.322	5.08
254.697	5.07
255.073	5.05
255.448	5.05
255.823	5.01
256.198	5
256.573	4.96
256.948	4.96
257.323	4.91
257.698	4.86
258.073	4.84
258.448	4.83
258.823	4.82
259.198	4.83
259.573	4.8
259.948	4.8
260.322	4.78
260.697	4.78
261.072	4.77
261.446	4.77
261.821	4.75
262.195	4.75
262.57	4.75
262.944	4.76
263.319	4.78
263.693	4.79
264.067	4.78
264.442	4.79
264.816	4.75
265.19	4.77
265.564	4.79
265.938	4.76
266.313	4.77
266.687	4.77
267.061	4.74
267.435	4.75
267.809	4.73
268.183	4.7
268.556	4.7
268.93	4.7
269.304	4.68
269.678	4.69
270.051	4.67
270.425	4.66
270.799	4.62
271.172	4.65
271.546	4.66
271.919	4.67
272.293	4.66
272.666	4.67
273.04	4.69
273.413	4.71
273.787	4.72
274.16	4.73
274.533	4.75
274.906	4.74
275.279	4.75
275.653	4.75
276.026	4.74
276.399	4.73
276.772	4.75
277.145	4.76
277.518	4.77
277.891	4.78
278.263	4.76
278.636	4.77
279.009	4.76
279.382	4.76
279.755	4.77
280.127	4.79
280.5	4.78
280.872	4.78
281.245	4.79
281.617	4.79
281.99	4.79
282.362	4.8
282.735	4.79
283.107	4.79
283.479	4.8
283.852	4.83
284.224	4.84
284.596	4.83
284.968	4.83
285.34	4.85
285.713	4.85
286.085	4.89
286.457	4.89
286.829	4.9
287.201	4.91
287.572	4.92
287.944	4.94
288.316	4.94
288.688	4.94
289.06	4.95
289.431	4.94
289.803	4.95
290.175	4.97
290.546	4.98
290.918	5.01
291.289	5.03
291.661	5.03
292.032	5.03
292.403	5.03
292.775	5.05
293.146	5.06
293.517	5.07
293.889	5.07
294.26	5.08
294.631	5.1
295.002	5.11
295.373	5.13
295.744	5.14
296.115	5.16
296.486	5.18
296.857	5.2
297.228	5.21
297.599	5.22
297.97	5.23
298.34	5.23
298.711	5.26
299.082	5.26
299.452	5.28
299.823	5.3
300.194	5.31
300.564	5.32
300.935	5.33
301.305	5.32
301.676	5.32
302.046	5.32
302.416	5.33
302.787	5.32
303.157	5.32
303.527	5.33
303.897	5.33
304.267	5.34
304.637	5.34
305.008	5.35
305.378	5.35
305.748	5.35
306.117	5.34
306.487	5.34
306.857	5.36
307.227	5.38
307.597	5.38
307.967	5.39
308.336	5.4
308.706	5.4
309.076	5.38
309.445	5.4
309.815	5.39
310.184	5.37
310.554	5.36
310.923	5.37
311.293	5.34
311.662	5.33
312.031	5.32
312.401	5.33
312.77	5.35
313.139	5.34
313.508	5.35
313.877	5.35
314.246	5.34
314.616	5.32
314.985	5.34
315.353	5.35
315.722	5.34
316.091	5.35
316.46	5.33
316.829	5.34
317.198	5.35
317.567	5.34
317.935	5.34
318.304	5.34
318.672	5.34
319.041	5.35
319.41	5.34
319.778	5.33
320.147	5.33
320.515	5.31
320.883	5.3
321.252	5.3
321.62	5.3
321.988	5.3
322.357	5.28
322.725	5.28
323.093	5.26
323.461	5.25
323.829	5.27
324.197	5.28
324.565	5.28
324.933	5.28
325.301	5.28
325.669	5.28
326.037	5.28
326.405	5.29
326.772	5.28
327.14	5.28
327.508	5.26
327.875	5.24
328.243	5.24
328.61	5.24
328.978	5.23
329.346	5.23
329.713	5.24
330.08	5.23
330.448	5.2
330.815	5.2
331.182	5.18
331.55	5.19
331.917	5.17
332.284	5.16
332.651	5.15
333.018	5.16
333.385	5.16
333.752	5.15
334.119	5.15
334.486	5.15
334.853	5.15
335.22	5.14
335.587	5.15
335.954	5.15
336.32	5.16
336.687	5.13
337.054	5.13
337.42	5.14
337.787	5.13
338.153	5.13
338.52	5.13
338.886	5.12
339.253	5.12
339.619	5.11
339.986	5.12
340.352	5.11
340.718	5.11
341.084	5.1
341.451	5.11
341.817	5.11
342.183	5.11
342.549	5.12
342.915	5.13
343.281	5.13
343.647	5.13
344.013	5.12
344.379	5.11
344.745	5.11
345.11	5.11
345.476	5.12
345.842	5.13
346.208	5.13
346.573	5.13
346.939	5.13
347.304	5.14
347.67	5.15
348.035	5.15
348.401	5.16
348.766	5.16
349.132	5.16
349.497	5.17
349.862	5.17
350.228	5.18
350.593	5.18
350.958	5.19
351.323	5.18
351.688	5.2
352.053	5.2
352.418	5.21
352.783	5.22
353.148	5.22
353.513	5.22
353.878	5.22
354.243	5.23
354.608	5.22
354.972	5.23
355.337	5.23
355.702	5.24
356.066	5.25
356.431	5.25
356.795	5.25
357.16	5.25
357.524	5.26
357.889	5.26
358.253	5.26
358.618	5.26
358.982	5.27
359.346	5.27
359.71	5.27
360.075	5.28
360.439	5.27
360.803	5.27
361.167	5.28
361.531	5.27
361.895	5.27
362.259	5.27
362.623	5.26
362.987	5.26
363.351	5.26
363.714	5.27
364.078	5.26
364.442	5.27
364.806	5.28
365.169	5.28
365.533	5.28
365.896	5.28
366.26	5.29
366.623	5.29
366.987	5.28
367.35	5.29
367.714	5.29
368.077	5.3
368.44	5.3
368.803	5.3
369.167	5.3
369.53	5.3
369.893	5.3
370.256	5.31
370.619	5.3
370.982	5.31
371.345	5.31
371.708	5.31
372.071	5.32
372.434	5.32
372.797	5.32
373.159	5.32
373.522	5.33
373.885	5.34
374.247	5.34
374.61	5.33
374.973	5.33
375.335	5.33
375.698	5.33
376.06	5.33
376.423	5.33
376.785	5.33
377.147	5.34
377.51	5.34
377.872	5.33
378.234	5.32
378.596	5.32
378.958	5.32
379.321	5.31
379.683	5.32
380.045	5.32
380.407	5.33
380.769	5.33
381.13	5.32
381.492	5.32
381.854	5.33
382.216	5.32
382.578	5.32
382.939	5.32
383.301	5.32
383.663	5.33
384.024	5.32
384.386	5.33
384.747	5.33
385.109	5.33
385.47	5.33
385.832	5.33
386.193	5.33
386.554	5.32
386.916	5.32
387.277	5.32
387.638	5.32
387.999	5.33
388.36	5.33
388.721	5.33
389.082	5.33
389.443	5.33
389.804	5.33
390.165	5.33
390.526	5.34
390.887	5.33
391.248	5.33
391.609	5.34
391.969	5.34
392.33	5.34
392.691	5.35
393.051	5.35
393.412	5.35
393.772	5.35
394.133	5.36
394.493	5.35
394.854	5.35
395.214	5.35
395.574	5.35
395.935	5.35
396.295	5.35
396.655	5.35
397.015	5.35
397.376	5.36
397.736	5.36
398.096	5.36
398.456	5.37
398.816	5.38
399.176	5.38
399.535	5.38
399.895	5.38
400.255	5.38
400.615	5.38
400.975	5.38
401.334	5.38
401.694	5.38
402.054	5.39
402.413	5.39
402.773	5.39
403.132	5.39
403.492	5.38
403.851	5.38
404.211	5.39
404.57	5.4
404.929	5.4
405.288	5.4
405.648	5.41
406.007	5.41
406.366	5.41
406.725	5.42
407.084	5.42
407.443	5.42
407.802	5.42
408.161	5.42
408.52	5.43
408.879	5.43
409.238	5.44
409.596	5.44
409.955	5.44
410.314	5.44
410.673	5.45
411.031	5.46
411.39	5.47
411.748	5.48
412.107	5.49
412.465	5.5
412.824	5.53
413.182	5.56
413.54	5.59
413.899	5.64
414.257	5.68
414.615	5.74
414.974	5.79
415.332	5.85
415.69	5.9
416.048	5.95
416.406	6.01
416.764	6.05
417.122	6.1
417.48	6.15
417.838	6.19
418.195	6.23
418.553	6.27
418.911	6.29
419.269	6.3
419.626	6.3
419.984	6.29
420.342	6.27
420.699	6.26
421.057	6.23
421.414	6.21
421.772	6.19
422.129	6.18
422.486	6.18
422.844	6.18
423.201	6.18
423.558	6.18
423.915	6.18
424.273	6.18
424.63	6.18
424.987	6.18
425.344	6.18
425.701	6.18
426.058	6.19
426.415	6.19
426.772	6.19
427.128	6.18
427.485	6.17
427.842	6.15
428.199	6.14
428.555	6.11
428.912	6.09
429.269	6.05
429.625	6.01
429.982	5.98
430.338	5.94
430.695	5.91
431.051	5.86
431.407	5.84
431.764	5.81
432.12	5.78
432.476	5.77
432.832	5.76
433.189	5.76
433.545	5.77
433.901	5.79
434.257	5.82
434.613	5.86
434.969	5.89
435.325	5.93
435.681	5.99
436.036	6.02
436.392	6.05
436.748	6.07
437.104	6.09
437.459	6.11
437.815	6.14
438.171	6.17
438.526	6.21
438.882	6.26
439.237	6.31
439.593	6.36
439.948	6.41
440.304	6.46
440.659	6.5
441.014	6.53
441.369	6.57
441.725	6.6
442.08	6.63
442.435	6.65
442.79	6.66
443.145	6.67
443.5	6.67
443.855	6.67
444.21	6.67
444.565	6.67
444.92	6.66
445.275	6.65
445.629	6.64
445.984	6.62
446.339	6.61
446.693	6.59
447.048	6.57
447.403	6.55
447.757	6.51
448.112	6.48
448.466	6.45
448.82	6.42
449.175	6.39
449.529	6.36
449.883	6.33
450.238	6.3
450.592	6.3
450.946	6.28
451.3	6.28
451.654	6.3
452.008	6.3
452.362	6.31
452.716	6.32
453.07	6.32
453.424	6.31
453.778	6.3
454.132	6.29
454.486	6.28
454.839	6.25
455.193	6.22
455.547	6.21
455.9	6.16
456.254	6.14
456.607	6.1
456.961	6.06
457.314	6.03
457.668	6.02
458.021	6.01
458.375	6
458.728	6.01
459.081	6.01
459.434	6.02
459.787	6.03
460.141	6.05
460.494	6.06
460.847	6.07
461.2	6.07
461.553	6.08
461.906	6.09
462.259	6.1
462.611	6.1
462.964	6.11
463.317	6.12
463.67	6.13
464.022	6.14
464.375	6.14
464.728	6.15
465.08	6.15
465.433	6.16
465.785	6.15
466.138	6.13
466.49	6.1
466.843	6.07
467.195	6.04
467.547	6.01
467.899	5.97
468.252	5.93
468.604	5.89
468.956	5.86
469.308	5.84
469.66	5.83
470.012	5.82
470.364	5.83
470.716	5.83
471.068	5.85
471.42	5.88
471.772	5.91
472.123	5.93
472.475	5.94
472.827	5.96
473.178	5.97
473.53	5.98
473.882	6.01
474.233	6.04
474.585	6.09
474.936	6.18
475.288	6.32
475.639	6.49
475.99	6.68
476.342	6.9
476.693	7.14
477.044	7.38
477.395	7.63
477.746	7.89
478.097	8.14
478.448	8.4
478.8	8.65
479.15	8.89
479.501	9.1
479.852	9.3
480.203	9.49
480.554	9.67
480.905	9.84
481.255	10
481.606	10.16
481.957	10.31
482.307	10.45
482.658	10.58
483.009	10.71
483.359	10.84
483.709	10.96
484.06	11.07
484.41	11.19
484.761	11.3
485.111	11.4
485.461	11.5
485.811	11.59
486.162	11.68
486.512	11.75
486.862	11.81
487.212	11.85
487.562	11.88
487.912	11.89
488.262	11.89
488.612	11.88
488.961	11.85
489.311	11.78
489.661	11.68
490.011	11.55
490.36	11.39
490.71	11.2
491.06	11.01
491.409	10.8
491.759	10.58
492.108	10.35
492.458	10.11
492.807	9.86
493.157	9.62
493.506	9.39
493.855	9.17
494.204	8.97
494.554	8.76
494.903	8.58
495.252	8.4
495.601	8.23
495.95	8.07
496.299	7.91
496.648	7.76
496.997	7.63
497.346	7.49
497.695	7.36
498.043	7.23
498.392	7.11
498.741	7
499.09	6.88
499.438	6.77
499.787	6.67
500.135	6.58
500.484	6.49
500.832	6.41
501.181	6.36
501.529	6.32
501.878	6.3
502.226	6.29
502.574	6.28
502.923	6.28
503.271	6.28
503.619	6.28
503.967	6.27
504.315	6.26
504.663	6.26
505.011	6.26
505.359	6.25
505.707	6.24
506.055	6.24
506.403	6.24
506.751	6.24
507.098	6.25
507.446	6.25
507.794	6.26
508.141	6.27
508.489	6.29
508.837	6.31
509.184	6.32
509.531	6.34
509.879	6.35
510.226	6.37
510.574	6.4
510.921	6.42
511.268	6.45
511.616	6.47
511.963	6.5
512.31	6.53
512.657	6.56
513.004	6.59
513.351	6.61
513.698	6.63
514.045	6.64
514.392	6.64
514.739	6.64
515.086	6.64
515.432	6.63
515.779	6.62
516.126	6.62
516.473	6.62
516.819	6.62
517.166	6.63
517.512	6.64
517.859	6.66
518.205	6.69
518.552	6.72
518.898	6.76
519.245	6.82
519.591	6.9
519.937	7.01
520.283	7.13
520.629	7.28
520.976	7.44
521.322	7.61
521.668	7.79
522.014	7.97
522.36	8.15
522.706	8.33
523.052	8.49
523.398	8.65
523.743	8.78
524.089	8.9
524.435	8.99
524.781	9.08
525.126	9.17
525.472	9.25
525.817	9.32
526.163	9.4
526.509	9.46
526.854	9.53
527.199	9.59
527.545	9.66
527.89	9.73
528.235	9.8
528.581	9.86
528.926	9.92
529.271	9.98
529.616	10.02
529.961	10.07
530.306	10.11
530.651	10.15
530.996	10.17
531.341	10.19
531.686	10.19
532.031	10.19
532.376	10.2
532.721	10.2
533.065	10.21
533.41	10.22
533.755	10.21
534.099	10.19
534.444	10.15
534.788	10.11
535.133	10.05
535.477	9.97
535.822	9.9
536.166	9.81
536.51	9.71
536.855	9.6
537.199	9.48
537.543	9.37
537.887	9.27
538.231	9.18
538.576	9.1
538.92	9.01
539.264	8.93
539.608	8.84
539.951	8.75
540.295	8.66
540.639	8.57
540.983	8.48
541.327	8.38
541.671	8.28
542.014	8.19
542.358	8.1
542.701	8.04
543.045	8
543.389	7.96
543.732	7.93
544.075	7.9
544.419	7.88
544.762	7.85
545.105	7.84
545.449	7.82
545.792	7.81
546.135	7.8
546.478	7.78
546.821	7.75
547.165	7.7
547.508	7.65
547.851	7.58
548.194	7.49
548.536	7.4
548.879	7.3
549.222	7.2
549.565	7.1
549.908	7
550.25	6.9
550.593	6.81
550.936	6.75
551.278	6.69
551.621	6.65
551.963	6.61
552.306	6.57
552.648	6.55
552.991	6.52
553.333	6.5
553.675	6.49
554.017	6.49
554.36	6.49
554.702	6.49
555.044	6.51
555.386	6.53
555.728	6.56
556.07	6.57
556.412	6.6
556.754	6.61
557.096	6.61
557.438	6.62
557.78	6.62
558.121	6.62
558.463	6.62
558.805	6.62
559.147	6.62
559.488	6.63
559.83	6.63
560.171	6.63
560.513	6.64
560.854	6.64
561.196	6.64
561.537	6.64
561.878	6.64
562.22	6.64
562.561	6.64
562.902	6.64
563.243	6.65
563.584	6.65
563.925	6.65
564.266	6.66
564.607	6.65
564.948	6.65
565.289	6.65
565.63	6.66
565.971	6.67
566.312	6.67
566.653	6.68
566.993	6.68
567.334	6.69
567.675	6.69
568.015	6.7
568.356	6.7
568.696	6.7
569.037	6.7
569.377	6.7
569.718	6.7
570.058	6.7
570.398	6.71
570.739	6.71
571.079	6.71
571.419	6.71
571.759	6.7
572.099	6.71
572.439	6.71
572.779	6.72
573.119	6.71
573.459	6.71
573.799	6.71
574.139	6.71
574.479	6.7
574.819	6.71
575.158	6.71
575.498	6.71
575.838	6.71
576.177	6.71
576.517	6.71
576.856	6.71
577.196	6.71
577.535	6.71
577.875	6.71
578.214	6.71
578.553	6.71
578.893	6.71
579.232	6.71
579.571	6.71
579.91	6.71
580.25	6.7
580.589	6.7
580.928	6.69
581.267	6.69
581.606	6.69
581.945	6.69
582.283	6.69
582.622	6.7
582.961	6.7
583.3	6.7
583.639	6.7
583.977	6.7
584.316	6.7
584.654	6.7
584.993	6.71
585.332	6.71
585.67	6.71
586.008	6.71
586.347	6.71
586.685	6.72
587.024	6.72
587.362	6.72
587.7	6.73
588.038	6.74
588.376	6.74
588.715	6.74
589.053	6.74
589.391	6.74
589.729	6.75
590.067	6.75
590.404	6.75
590.742	6.75
591.08	6.76
591.418	6.76
591.756	6.77
592.093	6.77
592.431	6.77
592.769	6.78
593.106	6.79
593.444	6.79
593.781	6.79
594.119	6.8
594.456	6.8
594.793	6.81
595.131	6.81
595.468	6.81
595.805	6.82
596.143	6.82
596.48	6.81
596.817	6.82
597.154	6.82
597.491	6.83
597.828	6.83
598.165	6.84
598.502	6.85
598.839	6.85
599.176	6.86
599.512	6.86
599.849	6.86
600.186	6.87
600.523	6.87
600.859	6.88
601.196	6.88
601.532	6.88
601.869	6.88
602.205	6.89
602.542	6.89
602.878	6.9
603.215	6.9
603.551	6.9
603.887	6.9
604.223	6.91
604.56	6.91
604.896	6.91
605.232	6.91
605.568	6.92
605.904	6.92
606.24	6.93
606.576	6.93
606.912	6.92
607.248	6.92
607.583	6.93
607.919	6.93
608.255	6.93
608.591	6.93
608.926	6.94
609.262	6.94
609.597	6.94
609.933	6.94
610.268	6.95
610.604	6.95
610.939	6.95
611.275	6.95
611.61	6.95
611.945	6.95
612.281	6.94
612.616	6.95
612.951	6.94
613.286	6.94
613.621	6.95
613.956	6.94
614.291	6.94
614.626	6.94
614.961	6.95
615.296	6.95
615.631	6.95
615.966	6.95
616.3	6.95
616.635	6.95
616.97	6.96
617.304	6.96
617.639	6.96
617.973	6.96
618.308	6.97
618.642	6.97
618.977	6.97
619.311	6.97
619.646	6.97
619.98	6.97
620.314	6.98
620.648	6.99
620.983	7
621.317	7
621.651	7.01
621.985	7.02
622.319	7.02
622.653	7.02
622.987	7.03
623.321	7.03
623.655	7.04
623.988	7.04
624.322	7.04
624.656	7.05
624.99	7.05
625.323	7.06
625.657	7.06
625.99	7.06
626.324	7.06
626.657	7.06
626.991	7.07
627.324	7.07
627.658	7.08
627.991	7.08
628.324	7.08
628.657	7.09
628.991	7.09
629.324	7.1
629.657	7.1
629.99	7.1
630.323	7.11
630.656	7.11
630.989	7.12
631.322	7.12
631.655	7.12
631.987	7.13
632.32	7.13
632.653	7.13
632.986	7.14
633.318	7.14
633.651	7.14
633.984	7.14
634.316	7.14
634.649	7.14
634.981	7.14
635.313	7.14
635.646	7.14
635.978	7.14
636.31	7.15
636.643	7.16
636.975	7.17
637.307	7.17
637.639	7.18
637.971	7.17
638.303	7.18
638.635	7.18
638.967	7.18
639.299	7.19
639.631	7.19
639.963	7.2
640.295	7.22
640.626	7.22
640.958	7.22
641.29	7.23
641.621	7.23
641.953	7.24
642.285	7.24
642.616	7.24
642.948	7.24
643.279	7.25
643.61	7.26
643.942	7.26
644.273	7.26
644.604	7.27
644.936	7.27
645.267	7.28
645.598	7.27
645.929	7.28
646.26	7.29
646.591	7.29
646.922	7.29
647.253	7.29
647.584	7.3
647.915	7.3
648.245	7.31
648.576	7.32
648.907	7.33
649.238	7.33
649.568	7.34
649.899	7.34
650.229	7.34
650.56	7.34
650.89	7.34
651.221	7.34
651.551	7.35
651.882	7.35
652.212	7.36
652.542	7.37
652.872	7.37
653.203	7.39
653.533	7.39
653.863	7.39
654.193	7.4
654.523	7.41
654.853	7.41
655.183	7.41
655.513	7.41
655.843	7.42
656.172	7.43
656.502	7.44
656.832	7.45
657.162	7.44
657.491	7.45
657.821	7.45
658.15	7.46
658.48	7.46
658.809	7.47
659.139	7.47
659.468	7.48
659.798	7.49
660.127	7.49
660.456	7.5
660.785	7.51
661.115	7.51
661.444	7.52
661.773	7.53
662.102	7.53
662.431	7.53
662.76	7.53
663.089	7.54
663.418	7.56
663.747	7.57
664.076	7.57
664.404	7.58
664.733	7.58
665.062	7.59
665.39	7.6
665.719	7.6
666.048	7.61
666.376	7.61
666.705	7.61
667.033	7.62
667.362	7.63
667.69	7.63
668.018	7.64
668.347	7.64
668.675	7.65
669.003	7.67
669.331	7.67
669.659	7.68
669.987	7.68
670.315	7.68
670.643	7.69
670.971	7.7
671.299	7.7
671.627	7.71
671.955	7.71
672.283	7.72
672.61	7.73
672.938	7.73
673.266	7.74
673.593	7.75
673.921	7.75
674.249	7.76
674.576	7.77
674.904	7.78
675.231	7.78
675.558	7.78
675.886	7.79
676.213	7.79
676.54	7.79
676.867	7.78
677.195	7.78
677.522	7.78
677.849	7.79
678.176	7.79
678.503	7.8
678.83	7.8
679.157	7.8
679.484	7.8
679.81	7.82
680.137	7.82
680.464	7.84
680.791	7.84
681.117	7.85
681.444	7.86
681.771	7.86
682.097	7.86
682.424	7.86
682.75	7.86
683.077	7.87
683.403	7.87
683.729	7.88
684.056	7.88
684.382	7.89
684.708	7.9
685.034	7.91
685.36	7.92
685.686	7.92
686.012	7.92
686.339	7.93
686.664	7.93
686.99	7.93
687.316	7.93
687.642	7.94
687.968	7.95
688.294	7.95
688.619	7.96
688.945	7.97
689.271	7.97
689.596	7.98
689.922	7.99
690.247	7.99
690.573	8
690.898	8
691.224	8.02
691.549	8.02
691.874	8.03
692.2	8.05
692.525	8.05
692.85	8.07
693.175	8.08
693.5	8.09
693.825	8.09
694.15	8.08
694.475	8.09
694.8	8.09
695.125	8.1
695.45	8.11
695.775	8.11
696.099	8.12
696.424	8.12
696.749	8.13
697.073	8.14
697.398	8.15
697.723	8.16
698.047	8.15
698.372	8.15
698.696	8.16
699.02	8.17
699.345	8.16
699.669	8.16
699.993	8.17
700.318	8.18
700.642	8.18
700.966	8.18
701.29	8.18
701.614	8.2
701.938	8.21
702.262	8.23
702.586	8.24
702.91	8.25
703.234	8.26
703.557	8.27
703.881	8.28
704.205	8.29
704.529	8.3
704.852	8.31
705.176	8.3
705.499	8.3
705.823	8.31
706.146	8.31
706.47	8.31
706.793	8.3
707.117	8.32
707.44	8.33
707.763	8.34
708.086	8.36
708.409	8.38
708.733	8.39
709.056	8.4
709.379	8.4
709.702	8.42
710.025	8.45
710.348	8.45
710.671	8.44
710.993	8.44
711.316	8.46
711.639	8.48
711.962	8.48
712.284	8.5
712.607	8.54
712.93	8.55
713.252	8.55
713.575	8.56
713.897	8.56
714.22	8.56
714.542	8.57
714.864	8.58
715.187	8.58
715.509	8.57
715.831	8.57
716.153	8.58
716.475	8.61
716.798	8.61
717.12	8.6
717.442	8.61
717.764	8.61
718.085	8.62
718.407	8.63
718.729	8.66
719.051	8.67
719.373	8.68
719.695	8.68
720.016	8.7
720.338	8.7
720.659	8.7
720.981	8.71
721.302	8.7
721.624	8.7
721.945	8.71
722.267	8.72
722.588	8.75
722.909	8.74
723.231	8.74
723.552	8.73
723.873	8.75
724.194	8.77
724.515	8.77
724.836	8.77
725.157	8.77
725.478	8.77
725.799	8.77
726.12	8.78
726.441	8.8
726.762	8.81
727.083	8.83
727.403	8.85
727.724	8.84
728.045	8.84
728.365	8.87
728.686	8.9
729.006	8.92
729.327	8.94
729.647	8.94
729.967	8.97
730.288	8.98
730.608	8.98
730.928	9
731.249	9.03
731.569	9.02
731.889	9.01
732.209	9.03
732.529	9.03
732.849	9.05
733.169	9.07
733.489	9.09
733.809	9.11
734.129	9.12
734.448	9.14
734.768	9.17
735.088	9.18
735.408	9.18
735.727	9.19
736.047	9.19
736.366	9.22
736.686	9.24
737.005	9.27
737.325	9.27
737.644	9.27
737.963	9.26
738.283	9.29
738.602	9.3
738.921	9.3
739.24	9.33
739.56	9.33
739.879	9.32
740.198	9.33
740.517	9.33
740.836	9.35
741.155	9.36
741.473	9.34
741.792	9.33
742.111	9.33
742.43	9.34
742.748	9.34
743.067	9.36
743.386	9.4
743.704	9.43
744.023	9.41
744.341	9.38
744.66	9.42
744.978	9.44
745.297	9.47
745.615	9.53
745.933	9.54
746.252	9.54
746.57	9.55
746.888	9.57
747.206	9.57
747.524	9.58
747.842	9.6
748.16	9.59
748.478	9.61
748.796	9.59
749.114	9.62
749.432	9.61
749.749	9.61
750.067	9.59
750.385	9.62
750.703	9.64
751.02	9.67
751.338	9.66
751.655	9.7
751.973	9.72
752.29	9.72
752.608	9.72
752.925	9.73
753.242	9.75
753.56	9.78
753.877	9.81
754.194	9.81
754.511	9.83
754.828	9.83
755.145	9.87
755.462	9.89
755.779	9.91
756.096	9.92
756.413	9.9
756.73	9.91
757.047	9.92
757.364	9.94
757.68	9.95
757.997	9.97
758.314	9.98
758.63	9.96
758.947	9.97
759.264	9.99
759.58	9.99
759.896	10.02
760.213	10.03
760.529	10.06
760.846	10.06
761.162	10.08
761.478	10.11
761.794	10.12
762.11	10.12
762.426	10.18
762.743	10.18
763.059	10.19
763.375	10.2
763.69	10.21
764.006	10.24
764.322	10.26
764.638	10.26
764.954	10.27
765.27	10.29
765.585	10.31
765.901	10.35
766.216	10.36
766.532	10.34
766.848	10.33
767.163	10.36
767.478	10.34
767.794	10.37
768.109	10.37
768.424	10.36
768.74	10.35
769.055	10.34
769.37	10.36
769.685	10.36
770	10.38
770.315	10.41
770.63	10.43
770.945	10.43
771.26	10.42
771.575	10.44
771.89	10.44
772.205	10.46
772.52	10.48
772.834	10.49
773.149	10.51
773.464	10.51
773.778	10.49
774.093	10.5
774.407	10.5
774.722	10.51
775.036	10.51
775.351	10.5
775.665	10.52
775.979	10.57
776.293	10.6
776.608	10.61
776.922	10.61
777.236	10.6
777.55	10.61
777.864	10.64
778.178	10.65
778.492	10.69
778.806	10.64
779.12	10.64
779.434	10.71
779.747	10.75
780.061	10.75
780.375	10.82
780.689	10.81
781.002	10.82
781.316	10.83
781.629	10.85
781.943	10.89
782.256	10.92
782.57	10.94
782.883	10.95
783.196	10.95
783.51	10.96
783.823	11.01
784.136	11.02
784.449	11.04
784.762	11.07
785.075	11.07
785.388	11.1
785.701	11.08
786.014	11.12
786.327	11.14
786.64	11.17
786.953	11.22
787.266	11.24
787.578	11.29
787.891	11.32
788.204	11.33
788.516	11.33
788.829	11.36
789.141	11.34
789.454	11.34
789.766	11.38
790.079	11.42
790.391	11.41
790.703	11.41
791.016	11.4
791.328	11.36
791.64	11.39
791.952	11.45
792.264	11.37
792.576	11.34
792.888	11.33
793.2	11.33
793.512	11.39
793.824	11.42
794.136	11.4
794.448	11.4
794.76	11.44
795.071	11.42
795.383	11.46
795.695	11.47
796.006	11.47
796.318	11.43
796.629	11.43
796.941	11.4
797.252	11.4
797.564	11.4
797.875	11.38
798.186	11.39
798.497	11.42
798.809	11.38
799.12	11.4
799.431	11.43
799.742	11.42
800.053	11.44
800.364	11.46
800.675	11.47
800.986	11.47
801.297	11.51
801.608	11.51
801.918	11.54
802.229	11.53
802.54	11.51
802.851	11.49
803.161	11.51
803.472	11.53
803.782	11.54
804.093	11.58
804.403	11.62
804.714	11.61
805.024	11.7
805.334	11.7
805.645	11.76
805.955	11.78
806.265	11.79
806.575	11.76
806.885	11.8
807.195	11.88
807.505	11.88
807.815	11.96
808.125	11.93
808.435	11.94
808.745	11.97
809.055	11.99
809.365	12.01
809.674	12.07
809.984	12.12
810.294	12.15
810.603	12.19
810.913	12.18
811.222	12.16
811.532	12.17
811.841	12.15
812.151	12.16
812.46	12.19
812.769	12.13
813.079	12.15
813.388	12.15
813.697	12.17
814.006	12.14
814.315	12.09
814.624	12.14
814.933	12.2
815.242	12.26
815.551	12.31
815.86	12.3
816.169	12.33
816.478	12.41
816.786	12.45
817.095	12.43
817.404	12.4
817.712	12.4
818.021	12.44
818.33	12.43
818.638	12.45
818.947	12.44
819.255	12.47
819.563	12.48
819.872	12.49
820.18	12.51
820.488	12.51
820.796	12.52
821.105	12.53
821.413	12.56
821.721	12.59
822.029	12.6
822.337	12.6
822.645	12.59
822.953	12.6
823.26	12.6
823.568	12.61
823.876	12.62
824.184	12.64
824.491	12.63
824.799	12.64
825.107	12.65
825.414	12.68
825.722	12.68
826.029	12.69
826.337	12.7
826.644	12.72
826.951	12.73
827.259	12.72
827.566	12.73
827.873	12.71
828.18	12.71
828.488	12.72
828.795	12.72
829.102	12.7
829.409	12.69
829.716	12.7
830.023	12.74
830.329	12.74
830.636	12.73
830.943	12.78
831.25	12.78
831.557	12.81
831.863	12.81
832.17	12.84
832.476	12.81
832.783	12.79
833.089	12.78
833.396	12.78
833.702	12.8
834.009	12.8
834.315	12.78
834.621	12.82
834.928	12.86
835.234	12.89
835.54	12.85
835.846	12.86
836.152	12.85
836.458	12.85
836.764	12.85
837.07	12.87
837.376	12.85
837.682	12.83
837.988	12.82
838.293	12.82
838.599	12.81
838.905	12.74
839.211	12.73
839.516	12.7
839.822	12.72
840.127	12.76
840.433	12.8
840.738	12.84
841.044	12.86
841.349	12.89
841.654	12.93
841.959	12.93
842.265	12.98
842.57	12.97
842.875	13.02
843.18	13.01
843.485	12.97
843.79	12.98
844.095	12.95
844.4	12.94
844.705	12.97
845.01	13.03
845.315	13
845.619	13.04
845.924	13.03
846.229	13
846.533	13.09
846.838	13.1
847.142	13.03
847.447	12.91
847.751	12.9
848.056	13
848.36	13.1
848.664	13.04
848.969	13.07
849.273	13.08
849.577	13.06
849.881	13.2
850.185	13.19
850.489	13.17
850.794	13.2
851.097	13.28
851.401	13.43
851.705	13.46
852.009	13.58
852.313	13.64
852.617	13.52
852.92	13.55
853.224	13.45
853.528	13.41
853.831	13.36
854.135	13.36
854.438	13.51
854.742	13.58
855.045	13.49
855.349	13.61
855.652	13.73
855.955	13.85
856.259	13.88
856.562	13.89
856.865	14.02
857.168	13.97
857.471	14.03
857.774	14.18
858.077	14.26
858.38	14.36
858.683	14.42
858.986	14.3
859.289	14.23
859.592	14.26
859.894	14.26
860.197	14.26
860.5	14.34
860.802	14.29
861.105	14.35
861.407	14.29
861.71	14.34
862.012	14.4
862.315	14.47
862.617	14.45
862.919	14.6
863.222	14.53
863.524	14.5
863.826	14.65
864.128	14.52
864.43	14.64
864.732	14.59
865.034	14.58
865.336	14.49
865.638	14.48
865.94	14.37
866.242	14.46
866.544	14.48
866.846	14.38
867.147	14.27
867.449	14.45
867.751	14.37
868.052	14.36
868.354	14.32
868.655	14.17
868.957	14.19
869.258	14.18
869.56	14.32
869.861	14.27
870.162	14.24
870.463	14.25
870.765	14.04
871.066	14.12
871.367	14.06
871.668	14.13
871.969	14.04
872.27	14.12
872.571	14.18
872.872	14.11
873.173	14.17
873.473	14.18
873.774	14.29
874.075	14.31
874.376	14.29
874.676	14.18
874.977	14.31
875.277	14.16
875.578	14.16
875.878	14.12
876.179	13.9
876.479	14.01
876.78	13.93
877.08	13.89
877.38	13.93
877.68	14.05
877.981	14.05
878.281	14.3
878.581	14.35
