Data from UWBM37214_Reflection_00009.txt Node
Date: Sun May 02 14:04:31 EDT 2021
User: vgr7
Spectrometer: USB2G7710
Scans to average: 10
Trigger mode: 4
Integration Time (sec): 1.000000E-1
Electric dark correction enabled: true
Boxcar width: 20
XAxis mode: Wavelengths
Number of Pixels in Spectrum: 2048
>>>>>Begin Spectral Data<<<<<
177.721	347.37
178.105	472.88
178.488	-7020
178.871	1031.25
179.254	306.94
179.636	236.68
180.019	130.14
180.402	97.02
180.785	77.66
181.168	64.49
181.55	54.71
181.933	53.65
182.316	48.07
182.698	44.75
183.081	42.66
183.463	40.4
183.846	37.41
184.228	40.86
184.611	36.99
184.993	35.91
185.376	33.37
185.758	36.98
186.14	38
186.522	37.98
186.904	39.18
187.287	36.45
187.669	33.45
188.051	32.2
188.433	30.09
188.815	27.55
189.197	25.79
189.579	25.75
189.961	24.99
190.342	23.03
190.724	23.2
191.106	22.15
191.488	21.41
191.869	21.54
192.251	18.63
192.633	17.08
193.014	15.72
193.396	13.26
193.777	14.78
194.159	15.18
194.54	14.38
194.922	13.5
195.303	12.26
195.684	11.43
196.065	11.07
196.447	12.33
196.828	11.53
197.209	9.62
197.59	7.46
197.971	7.91
198.352	8.66
198.733	8.89
199.114	9.51
199.495	9.73
199.876	7.72
200.257	8.13
200.638	6.69
201.018	8.39
201.399	9.25
201.78	8.73
202.16	7.49
202.541	6.78
202.922	7.14
203.302	7.6
203.683	9.58
204.063	10.51
204.444	10.09
204.824	10.82
205.204	10.15
205.585	11.17
205.965	11.7
206.345	10.98
206.725	12.23
207.106	12.86
207.486	13.27
207.866	14.69
208.246	14.38
208.626	14.11
209.006	14.69
209.386	13.35
209.766	12.31
210.145	11.63
210.525	12.09
210.905	12.89
211.285	12.1
211.664	13.47
212.044	11.55
212.424	11.64
212.803	12.79
213.183	13.43
213.562	13.4
213.942	13
214.321	12.71
214.701	11.08
215.08	11.1
215.459	11.02
215.838	10.4
216.218	10.97
216.597	9.89
216.976	8.97
217.355	9.08
217.734	9.19
218.113	9.44
218.492	8.63
218.871	7.72
219.25	7.34
219.629	6.65
220.008	7.01
220.387	6.19
220.766	7.42
221.144	6.56
221.523	6.33
221.902	6.2
222.28	5.81
222.659	5.18
223.037	4.18
223.416	4.16
223.794	4.77
224.173	5
224.551	4.4
224.929	5.23
225.308	5.06
225.686	5.05
226.064	4.89
226.442	4.92
226.821	5.73
227.199	5.57
227.577	5.62
227.955	5.68
228.333	5.85
228.711	5.47
229.089	4.79
229.467	4.63
229.845	4.63
230.222	4.91
230.6	4.84
230.978	5.24
231.356	5.52
231.733	5.38
232.111	5.33
232.488	5.05
232.866	4.82
233.243	4.79
233.621	4.69
233.998	5.04
234.376	5.02
234.753	4.83
235.13	4.91
235.508	4.87
235.885	4.87
236.262	4.71
236.639	4.73
237.016	4.7
237.393	4.68
237.77	4.71
238.147	4.65
238.524	4.75
238.901	4.63
239.278	4.6
239.655	4.63
240.032	4.64
240.409	4.57
240.785	4.6
241.162	4.61
241.539	4.58
241.915	4.61
242.292	4.58
242.668	4.54
243.045	4.55
243.421	4.55
243.798	4.52
244.174	4.56
244.551	4.62
244.927	4.62
245.303	4.62
245.679	4.62
246.056	4.57
246.432	4.53
246.808	4.49
247.184	4.51
247.56	4.52
247.936	4.52
248.312	4.52
248.688	4.52
249.064	4.52
249.44	4.5
249.815	4.49
250.191	4.45
250.567	4.45
250.943	4.44
251.318	4.41
251.694	4.42
252.069	4.41
252.445	4.42
252.82	4.41
253.196	4.38
253.571	4.38
253.947	4.37
254.322	4.38
254.697	4.37
255.073	4.32
255.448	4.3
255.823	4.27
256.198	4.27
256.573	4.24
256.948	4.25
257.323	4.2
257.698	4.15
258.073	4.12
258.448	4.1
258.823	4.06
259.198	4.04
259.573	4.01
259.948	3.99
260.322	3.98
260.697	3.96
261.072	3.93
261.446	3.94
261.821	3.94
262.195	3.93
262.57	3.91
262.944	3.91
263.319	3.91
263.693	3.9
264.067	3.9
264.442	3.89
264.816	3.87
265.19	3.85
265.564	3.87
265.938	3.86
266.313	3.86
266.687	3.86
267.061	3.84
267.435	3.83
267.809	3.8
268.183	3.79
268.556	3.79
268.93	3.8
269.304	3.79
269.678	3.78
270.051	3.76
270.425	3.78
270.799	3.79
271.172	3.8
271.546	3.79
271.919	3.79
272.293	3.79
272.666	3.79
273.04	3.83
273.413	3.87
273.787	3.89
274.16	3.9
274.533	3.92
274.906	3.94
275.279	3.93
275.653	3.93
276.026	3.95
276.399	3.95
276.772	3.97
277.145	3.97
277.518	3.99
277.891	4
278.263	4
278.636	4.01
279.009	4
279.382	4.01
279.755	4.02
280.127	4.05
280.5	4.08
280.872	4.08
281.245	4.1
281.617	4.12
281.99	4.14
282.362	4.14
282.735	4.15
283.107	4.17
283.479	4.19
283.852	4.2
284.224	4.2
284.596	4.22
284.968	4.22
285.34	4.25
285.713	4.26
286.085	4.27
286.457	4.28
286.829	4.3
287.201	4.32
287.572	4.32
287.944	4.34
288.316	4.34
288.688	4.34
289.06	4.36
289.431	4.39
289.803	4.42
290.175	4.44
290.546	4.47
290.918	4.52
291.289	4.54
291.661	4.58
292.032	4.59
292.403	4.63
292.775	4.65
293.146	4.68
293.517	4.7
293.889	4.72
294.26	4.77
294.631	4.81
295.002	4.86
295.373	4.88
295.744	4.9
296.115	4.94
296.486	4.98
296.857	5.02
297.228	5.05
297.599	5.1
297.97	5.13
298.34	5.17
298.711	5.21
299.082	5.25
299.452	5.3
299.823	5.34
300.194	5.39
300.564	5.44
300.935	5.46
301.305	5.51
301.676	5.55
302.046	5.6
302.416	5.64
302.787	5.69
303.157	5.74
303.527	5.8
303.897	5.86
304.267	5.91
304.637	5.97
305.008	6.01
305.378	6.06
305.748	6.11
306.117	6.14
306.487	6.2
306.857	6.26
307.227	6.32
307.597	6.37
307.967	6.43
308.336	6.5
308.706	6.55
309.076	6.6
309.445	6.65
309.815	6.68
310.184	6.72
310.554	6.76
310.923	6.81
311.293	6.85
311.662	6.89
312.031	6.93
312.401	6.98
312.77	7.03
313.139	7.07
313.508	7.12
313.877	7.18
314.246	7.23
314.616	7.28
314.985	7.32
315.353	7.36
315.722	7.39
316.091	7.47
316.46	7.51
316.829	7.56
317.198	7.61
317.567	7.66
317.935	7.72
318.304	7.77
318.672	7.81
319.041	7.87
319.41	7.92
319.778	7.96
320.147	8.01
320.515	8.07
320.883	8.1
321.252	8.14
321.62	8.2
321.988	8.24
322.357	8.28
322.725	8.32
323.093	8.37
323.461	8.38
323.829	8.41
324.197	8.45
324.565	8.47
324.933	8.51
325.301	8.54
325.669	8.57
326.037	8.6
326.405	8.63
326.772	8.66
327.14	8.67
327.508	8.69
327.875	8.71
328.243	8.73
328.61	8.73
328.978	8.74
329.346	8.74
329.713	8.76
330.08	8.78
330.448	8.8
330.815	8.8
331.182	8.79
331.55	8.81
331.917	8.82
332.284	8.83
332.651	8.85
333.018	8.85
333.385	8.88
333.752	8.9
334.119	8.9
334.486	8.91
334.853	8.93
335.22	8.94
335.587	8.96
335.954	8.98
336.32	9
336.687	9
337.054	9.02
337.42	9.03
337.787	9.04
338.153	9.05
338.52	9.08
338.886	9.09
339.253	9.09
339.619	9.1
339.986	9.12
340.352	9.13
340.718	9.15
341.084	9.16
341.451	9.17
341.817	9.18
342.183	9.2
342.549	9.22
342.915	9.24
343.281	9.25
343.647	9.27
344.013	9.27
344.379	9.29
344.745	9.29
345.11	9.3
345.476	9.31
345.842	9.33
346.208	9.35
346.573	9.34
346.939	9.35
347.304	9.37
347.67	9.37
348.035	9.37
348.401	9.37
348.766	9.38
349.132	9.38
349.497	9.39
349.862	9.38
350.228	9.39
350.593	9.39
350.958	9.38
351.323	9.38
351.688	9.38
352.053	9.38
352.418	9.37
352.783	9.35
353.148	9.34
353.513	9.33
353.878	9.32
354.243	9.3
354.608	9.29
354.972	9.28
355.337	9.27
355.702	9.26
356.066	9.23
356.431	9.21
356.795	9.19
357.16	9.16
357.524	9.14
357.889	9.11
358.253	9.09
358.618	9.06
358.982	9.04
359.346	9.02
359.71	8.99
360.075	8.97
360.439	8.95
360.803	8.93
361.167	8.9
361.531	8.89
361.895	8.86
362.259	8.82
362.623	8.79
362.987	8.77
363.351	8.73
363.714	8.7
364.078	8.66
364.442	8.63
364.806	8.6
365.169	8.58
365.533	8.54
365.896	8.5
366.26	8.47
366.623	8.43
366.987	8.39
367.35	8.35
367.714	8.31
368.077	8.27
368.44	8.22
368.803	8.18
369.167	8.13
369.53	8.08
369.893	8.02
370.256	7.97
370.619	7.91
370.982	7.86
371.345	7.82
371.708	7.77
372.071	7.73
372.434	7.68
372.797	7.63
373.159	7.58
373.522	7.54
373.885	7.49
374.247	7.44
374.61	7.4
374.973	7.34
375.335	7.29
375.698	7.24
376.06	7.19
376.423	7.13
376.785	7.08
377.147	7.04
377.51	7
377.872	6.95
378.234	6.9
378.596	6.85
378.958	6.81
379.321	6.76
379.683	6.72
380.045	6.66
380.407	6.63
380.769	6.58
381.13	6.54
381.492	6.5
381.854	6.46
382.216	6.42
382.578	6.38
382.939	6.34
383.301	6.3
383.663	6.26
384.024	6.22
384.386	6.19
384.747	6.16
385.109	6.12
385.47	6.09
385.832	6.04
386.193	6.01
386.554	5.97
386.916	5.93
387.277	5.89
387.638	5.85
387.999	5.82
388.36	5.79
388.721	5.76
389.082	5.73
389.443	5.7
389.804	5.67
390.165	5.64
390.526	5.61
390.887	5.58
391.248	5.56
391.609	5.53
391.969	5.5
392.33	5.48
392.691	5.45
393.051	5.42
393.412	5.39
393.772	5.36
394.133	5.33
394.493	5.3
394.854	5.27
395.214	5.23
395.574	5.2
395.935	5.17
396.295	5.15
396.655	5.12
397.015	5.09
397.376	5.06
397.736	5.03
398.096	5.01
398.456	4.98
398.816	4.96
399.176	4.93
399.535	4.9
399.895	4.88
400.255	4.85
400.615	4.83
400.975	4.8
401.334	4.77
401.694	4.75
402.054	4.74
402.413	4.71
402.773	4.69
403.132	4.67
403.492	4.65
403.851	4.63
404.211	4.62
404.57	4.6
404.929	4.59
405.288	4.57
405.648	4.56
406.007	4.55
406.366	4.53
406.725	4.52
407.084	4.51
407.443	4.49
407.802	4.48
408.161	4.47
408.52	4.46
408.879	4.45
409.238	4.44
409.596	4.43
409.955	4.43
410.314	4.42
410.673	4.41
411.031	4.4
411.39	4.39
411.748	4.38
412.107	4.38
412.465	4.37
412.824	4.38
413.182	4.39
413.54	4.4
413.899	4.42
414.257	4.44
414.615	4.47
414.974	4.49
415.332	4.52
415.69	4.55
416.048	4.57
416.406	4.6
416.764	4.62
417.122	4.63
417.48	4.65
417.838	4.67
418.195	4.69
418.553	4.7
418.911	4.7
419.269	4.7
419.626	4.69
419.984	4.68
420.342	4.66
420.699	4.63
421.057	4.61
421.414	4.58
421.772	4.56
422.129	4.54
422.486	4.53
422.844	4.52
423.201	4.51
423.558	4.5
423.915	4.49
424.273	4.49
424.63	4.48
424.987	4.47
425.344	4.46
425.701	4.45
426.058	4.45
426.415	4.44
426.772	4.43
427.128	4.42
427.485	4.4
427.842	4.39
428.199	4.37
428.555	4.34
428.912	4.32
429.269	4.28
429.625	4.25
429.982	4.22
430.338	4.18
430.695	4.16
431.051	4.12
431.407	4.09
431.764	4.07
432.12	4.05
432.476	4.04
432.832	4.02
433.189	4.02
433.545	4.02
433.901	4.03
434.257	4.05
434.613	4.07
434.969	4.09
435.325	4.12
435.681	4.16
436.036	4.18
436.392	4.2
436.748	4.21
437.104	4.22
437.459	4.24
437.815	4.25
438.171	4.27
438.526	4.29
438.882	4.32
439.237	4.36
439.593	4.39
439.948	4.41
440.304	4.45
440.659	4.47
441.014	4.49
441.369	4.51
441.725	4.52
442.08	4.54
442.435	4.55
442.79	4.56
443.145	4.56
443.5	4.55
443.855	4.55
444.21	4.55
444.565	4.54
444.92	4.53
445.275	4.52
445.629	4.51
445.984	4.5
446.339	4.48
446.693	4.47
447.048	4.45
447.403	4.43
447.757	4.4
448.112	4.38
448.466	4.35
448.82	4.32
449.175	4.3
449.529	4.27
449.883	4.25
450.238	4.22
450.592	4.21
450.946	4.2
451.3	4.19
451.654	4.2
452.008	4.19
452.362	4.2
452.716	4.2
453.07	4.19
453.424	4.18
453.778	4.17
454.132	4.16
454.486	4.15
454.839	4.13
455.193	4.11
455.547	4.1
455.9	4.07
456.254	4.06
456.607	4.03
456.961	4.01
457.314	3.98
457.668	3.97
458.021	3.97
458.375	3.97
458.728	3.97
459.081	3.97
459.434	3.98
459.787	3.99
460.141	4
460.494	4.01
460.847	4.02
461.2	4.03
461.553	4.04
461.906	4.05
462.259	4.05
462.611	4.06
462.964	4.07
463.317	4.08
463.67	4.09
464.022	4.1
464.375	4.11
464.728	4.12
465.08	4.13
465.433	4.14
465.785	4.14
466.138	4.13
466.49	4.12
466.843	4.11
467.195	4.09
467.547	4.08
467.899	4.07
468.252	4.04
468.604	4.03
468.956	4.02
469.308	4
469.66	4
470.012	4
470.364	4.01
470.716	4.01
471.068	4.03
471.42	4.05
471.772	4.08
472.123	4.09
472.475	4.1
472.827	4.11
473.178	4.12
473.53	4.13
473.882	4.15
474.233	4.18
474.585	4.21
474.936	4.27
475.288	4.36
475.639	4.46
475.99	4.59
476.342	4.73
476.693	4.89
477.044	5.04
477.395	5.21
477.746	5.37
478.097	5.54
478.448	5.71
478.8	5.87
479.15	6.03
479.501	6.17
479.852	6.29
480.203	6.42
480.554	6.53
480.905	6.65
481.255	6.75
481.606	6.86
481.957	6.95
482.307	7.04
482.658	7.13
483.009	7.22
483.359	7.3
483.709	7.38
484.06	7.46
484.41	7.54
484.761	7.61
485.111	7.69
485.461	7.76
485.811	7.82
486.162	7.88
486.512	7.94
486.862	7.98
487.212	8.01
487.562	8.03
487.912	8.05
488.262	8.06
488.612	8.06
488.961	8.05
489.311	8.01
489.661	7.95
490.011	7.87
490.36	7.78
490.71	7.67
491.06	7.55
491.409	7.43
491.759	7.3
492.108	7.16
492.458	7.02
492.807	6.87
493.157	6.72
493.506	6.58
493.855	6.46
494.204	6.34
494.554	6.22
494.903	6.11
495.252	6.01
495.601	5.92
495.95	5.83
496.299	5.75
496.648	5.67
496.997	5.6
497.346	5.54
497.695	5.48
498.043	5.43
498.392	5.38
498.741	5.33
499.09	5.29
499.438	5.26
499.787	5.23
500.135	5.2
500.484	5.19
500.832	5.19
501.181	5.2
501.529	5.23
501.878	5.27
502.226	5.32
502.574	5.38
502.923	5.44
503.271	5.5
503.619	5.57
503.967	5.65
504.315	5.72
504.663	5.79
505.011	5.87
505.359	5.95
505.707	6.03
506.055	6.11
506.403	6.19
506.751	6.28
507.098	6.38
507.446	6.47
507.794	6.57
508.141	6.67
508.489	6.79
508.837	6.91
509.184	7.03
509.531	7.15
509.879	7.27
510.226	7.42
510.574	7.56
510.921	7.72
511.268	7.88
511.616	8.04
511.963	8.21
512.31	8.39
512.657	8.56
513.004	8.73
513.351	8.9
513.698	9.05
514.045	9.19
514.392	9.33
514.739	9.47
515.086	9.59
515.432	9.72
515.779	9.84
516.126	9.97
516.473	10.1
516.819	10.25
517.166	10.42
517.512	10.6
517.859	10.79
518.205	11
518.552	11.23
518.898	11.48
519.245	11.76
519.591	12.1
519.937	12.5
520.283	12.96
520.629	13.47
520.976	14.01
521.322	14.57
521.668	15.15
522.014	15.73
522.36	16.33
522.706	16.9
523.052	17.47
523.398	18
523.743	18.5
524.089	18.95
524.435	19.38
524.781	19.79
525.126	20.2
525.472	20.6
525.817	20.99
526.163	21.37
526.509	21.75
526.854	22.12
527.199	22.5
527.545	22.87
527.89	23.26
528.235	23.65
528.581	24.02
528.926	24.37
529.271	24.71
529.616	25.03
529.961	25.34
530.306	25.64
530.651	25.93
530.996	26.19
531.341	26.43
531.686	26.65
532.031	26.86
532.376	27.1
532.721	27.35
533.065	27.64
533.41	27.93
533.755	28.21
534.099	28.46
534.444	28.67
534.788	28.87
535.133	29.06
535.477	29.22
535.822	29.35
536.166	29.46
536.51	29.51
536.855	29.53
537.199	29.51
537.543	29.5
537.887	29.5
538.231	29.54
538.576	29.59
538.92	29.62
539.264	29.65
539.608	29.66
539.951	29.65
540.295	29.64
540.639	29.61
540.983	29.56
541.327	29.51
541.671	29.43
542.014	29.37
542.358	29.33
542.701	29.34
543.045	29.42
543.389	29.53
543.732	29.65
544.075	29.8
544.419	29.96
544.762	30.13
545.105	30.31
545.449	30.51
545.792	30.71
546.135	30.91
546.478	31.08
546.821	31.22
547.165	31.29
547.508	31.32
547.851	31.31
548.194	31.26
548.536	31.17
548.879	31.06
549.222	30.93
549.565	30.79
549.908	30.66
550.25	30.55
550.593	30.49
550.936	30.49
551.278	30.55
551.621	30.63
551.963	30.74
552.306	30.86
552.648	31.02
552.991	31.2
553.333	31.39
553.675	31.62
554.017	31.88
554.36	32.17
554.702	32.48
555.044	32.83
555.386	33.22
555.728	33.65
556.07	34.03
556.412	34.43
556.754	34.76
557.096	35.04
557.438	35.32
557.78	35.59
558.121	35.86
558.463	36.14
558.805	36.43
559.147	36.7
559.488	36.98
559.83	37.25
560.171	37.53
560.513	37.8
560.854	38.07
561.196	38.33
561.537	38.6
561.878	38.86
562.22	39.1
562.561	39.35
562.902	39.59
563.243	39.84
563.584	40.08
563.925	40.32
564.266	40.56
564.607	40.81
564.948	41.04
565.289	41.27
565.63	41.5
565.971	41.74
566.312	41.97
566.653	42.19
566.993	42.41
567.334	42.64
567.675	42.85
568.015	43.05
568.356	43.24
568.696	43.43
569.037	43.62
569.377	43.79
569.718	43.97
570.058	44.15
570.398	44.31
570.739	44.47
571.079	44.63
571.419	44.78
571.759	44.93
572.099	45.08
572.439	45.24
572.779	45.37
573.119	45.51
573.459	45.65
573.799	45.79
574.139	45.92
574.479	46.06
574.819	46.18
575.158	46.31
575.498	46.43
575.838	46.56
576.177	46.7
576.517	46.82
576.856	46.94
577.196	47.06
577.535	47.18
577.875	47.3
578.214	47.42
578.553	47.54
578.893	47.65
579.232	47.77
579.571	47.88
579.91	47.99
580.25	48.1
580.589	48.21
580.928	48.32
581.267	48.42
581.606	48.54
581.945	48.66
582.283	48.78
582.622	48.9
582.961	49.01
583.3	49.14
583.639	49.26
583.977	49.37
584.316	49.5
584.654	49.61
584.993	49.73
585.332	49.84
585.67	49.96
586.008	50.07
586.347	50.18
586.685	50.3
587.024	50.41
587.362	50.52
587.7	50.64
588.038	50.76
588.376	50.88
588.715	51
589.053	51.1
589.391	51.23
589.729	51.35
590.067	51.46
590.404	51.58
590.742	51.68
591.08	51.78
591.418	51.89
591.756	51.98
592.093	52.08
592.431	52.16
592.769	52.25
593.106	52.33
593.444	52.41
593.781	52.49
594.119	52.57
594.456	52.64
594.793	52.71
595.131	52.79
595.468	52.87
595.805	52.95
596.143	53.03
596.48	53.11
596.817	53.21
597.154	53.31
597.491	53.39
597.828	53.48
598.165	53.56
598.502	53.65
598.839	53.74
599.176	53.81
599.512	53.88
599.849	53.95
600.186	54.02
600.523	54.08
600.859	54.14
601.196	54.19
601.532	54.25
601.869	54.3
602.205	54.37
602.542	54.42
602.878	54.5
603.215	54.56
603.551	54.61
603.887	54.67
604.223	54.71
604.56	54.76
604.896	54.81
605.232	54.85
605.568	54.9
605.904	54.95
606.24	54.99
606.576	55.03
606.912	55.07
607.248	55.11
607.583	55.15
607.919	55.2
608.255	55.25
608.591	55.3
608.926	55.34
609.262	55.37
609.597	55.41
609.933	55.44
610.268	55.47
610.604	55.49
610.939	55.51
611.275	55.53
611.61	55.56
611.945	55.59
612.281	55.61
612.616	55.63
612.951	55.67
613.286	55.7
613.621	55.74
613.956	55.77
614.291	55.8
614.626	55.83
614.961	55.85
615.296	55.89
615.631	55.91
615.966	55.93
616.3	55.97
616.635	55.98
616.97	56
617.304	56.02
617.639	56.04
617.973	56.08
618.308	56.11
618.642	56.16
618.977	56.19
619.311	56.23
619.646	56.26
619.98	56.3
620.314	56.33
620.648	56.37
620.983	56.41
621.317	56.47
621.651	56.49
621.985	56.51
622.319	56.54
622.653	56.57
622.987	56.6
623.321	56.62
623.655	56.65
623.988	56.68
624.322	56.69
624.656	56.73
624.99	56.76
625.323	56.77
625.657	56.79
625.99	56.82
626.324	56.85
626.657	56.88
626.991	56.91
627.324	56.92
627.658	56.95
627.991	56.98
628.324	57.02
628.657	57.06
628.991	57.08
629.324	57.11
629.657	57.14
629.99	57.16
630.323	57.19
630.656	57.22
630.989	57.25
631.322	57.27
631.655	57.28
631.987	57.31
632.32	57.31
632.653	57.33
632.986	57.34
633.318	57.35
633.651	57.39
633.984	57.4
634.316	57.42
634.649	57.45
634.981	57.45
635.313	57.47
635.646	57.49
635.978	57.52
636.31	57.54
636.643	57.56
636.975	57.59
637.307	57.61
637.639	57.63
637.971	57.65
638.303	57.68
638.635	57.69
638.967	57.71
639.299	57.73
639.631	57.75
639.963	57.77
640.295	57.78
640.626	57.78
640.958	57.81
641.29	57.82
641.621	57.83
641.953	57.84
642.285	57.84
642.616	57.85
642.948	57.87
643.279	57.9
643.61	57.91
643.942	57.93
644.273	57.95
644.604	57.97
644.936	57.99
645.267	58.02
645.598	58.05
645.929	58.07
646.26	58.11
646.591	58.13
646.922	58.16
647.253	58.18
647.584	58.2
647.915	58.21
648.245	58.22
648.576	58.24
648.907	58.27
649.238	58.29
649.568	58.3
649.899	58.32
650.229	58.34
650.56	58.37
650.89	58.38
651.221	58.42
651.551	58.45
651.882	58.46
652.212	58.49
652.542	58.53
652.872	58.56
653.203	58.58
653.533	58.61
653.863	58.63
654.193	58.66
654.523	58.67
654.853	58.71
655.183	58.73
655.513	58.75
655.843	58.78
656.172	58.82
656.502	58.83
656.832	58.84
657.162	58.87
657.491	58.88
657.821	58.91
658.15	58.93
658.48	58.94
658.809	58.96
659.139	59
659.468	59.01
659.798	59.02
660.127	59.04
660.456	59.05
660.785	59.05
661.115	59.08
661.444	59.1
661.773	59.11
662.102	59.12
662.431	59.13
662.76	59.14
663.089	59.16
663.418	59.17
663.747	59.19
664.076	59.21
664.404	59.22
664.733	59.23
665.062	59.27
665.39	59.28
665.719	59.29
666.048	59.31
666.376	59.33
666.705	59.35
667.033	59.35
667.362	59.36
667.69	59.38
668.018	59.4
668.347	59.4
668.675	59.4
669.003	59.42
669.331	59.42
669.659	59.42
669.987	59.42
670.315	59.44
670.643	59.44
670.971	59.45
671.299	59.46
671.627	59.46
671.955	59.47
672.283	59.48
672.61	59.48
672.938	59.5
673.266	59.5
673.593	59.51
673.921	59.51
674.249	59.53
674.576	59.54
674.904	59.54
675.231	59.57
675.558	59.61
675.886	59.62
676.213	59.65
676.54	59.68
676.867	59.71
677.195	59.73
677.522	59.72
677.849	59.73
678.176	59.73
678.503	59.73
678.83	59.74
679.157	59.75
679.484	59.75
679.81	59.76
680.137	59.79
680.464	59.82
680.791	59.85
681.117	59.88
681.444	59.88
681.771	59.91
682.097	59.92
682.424	59.93
682.75	59.94
683.077	59.97
683.403	59.98
683.729	59.98
684.056	59.98
684.382	59.99
684.708	60
685.034	60.02
685.36	60.03
685.686	60.04
686.012	60.02
686.339	60.04
686.664	60.06
686.99	60.06
687.316	60.09
687.642	60.11
687.968	60.12
688.294	60.15
688.619	60.16
688.945	60.14
689.271	60.15
689.596	60.14
689.922	60.15
690.247	60.14
690.573	60.14
690.898	60.15
691.224	60.16
691.549	60.19
691.874	60.19
692.2	60.2
692.525	60.22
692.85	60.24
693.175	60.26
693.5	60.26
693.825	60.28
694.15	60.3
694.475	60.29
694.8	60.3
695.125	60.29
695.45	60.32
695.775	60.34
696.099	60.36
696.424	60.37
696.749	60.39
697.073	60.42
697.398	60.43
697.723	60.45
698.047	60.47
698.372	60.49
698.696	60.53
699.02	60.54
699.345	60.56
699.669	60.56
699.993	60.59
700.318	60.62
700.642	60.64
700.966	60.65
701.29	60.67
701.614	60.7
701.938	60.71
702.262	60.74
702.586	60.74
702.91	60.76
703.234	60.77
703.557	60.78
703.881	60.8
704.205	60.84
704.529	60.86
704.852	60.86
705.176	60.89
705.499	60.91
705.823	60.9
706.146	60.93
706.47	60.94
706.793	60.93
707.117	60.95
707.44	60.96
707.763	60.97
708.086	60.99
708.409	61.02
708.733	61.01
709.056	61.04
709.379	61.06
709.702	61.06
710.025	61.04
710.348	61.06
710.671	61.07
710.993	61.08
711.316	61.1
711.639	61.1
711.962	61.09
712.284	61.11
712.607	61.12
712.93	61.11
713.252	61.12
713.575	61.15
713.897	61.15
714.22	61.15
714.542	61.15
714.864	61.13
715.187	61.14
715.509	61.12
715.831	61.16
716.153	61.16
716.475	61.16
716.798	61.17
717.12	61.19
717.442	61.19
717.764	61.21
718.085	61.22
718.407	61.26
718.729	61.27
719.051	61.31
719.373	61.3
719.695	61.32
720.016	61.35
720.338	61.36
720.659	61.37
720.981	61.38
721.302	61.38
721.624	61.39
721.945	61.41
722.267	61.39
722.588	61.39
722.909	61.4
723.231	61.43
723.552	61.43
723.873	61.45
724.194	61.47
724.515	61.48
724.836	61.5
725.157	61.51
725.478	61.51
725.799	61.54
726.12	61.58
726.441	61.58
726.762	61.58
727.083	61.59
727.403	61.61
727.724	61.62
728.045	61.61
728.365	61.62
728.686	61.64
729.006	61.6
729.327	61.63
729.647	61.65
729.967	61.67
730.288	61.68
730.608	61.73
730.928	61.74
731.249	61.72
731.569	61.68
731.889	61.7
732.209	61.72
732.529	61.71
732.849	61.7
733.169	61.7
733.489	61.71
733.809	61.68
734.129	61.71
734.448	61.73
734.768	61.73
735.088	61.76
735.408	61.81
735.727	61.81
736.047	61.85
736.366	61.86
736.686	61.89
737.005	61.87
737.325	61.87
737.644	61.86
737.963	61.85
738.283	61.84
738.602	61.84
738.921	61.82
739.24	61.85
739.56	61.82
739.879	61.83
740.198	61.85
740.517	61.83
740.836	61.81
741.155	61.84
741.473	61.84
741.792	61.86
742.111	61.93
742.43	61.9
742.748	61.88
743.067	61.86
743.386	61.88
743.704	61.81
744.023	61.8
744.341	61.82
744.66	61.85
744.978	61.85
745.297	61.85
745.615	61.86
745.933	61.9
746.252	61.92
746.57	61.95
746.888	61.99
747.206	61.97
747.524	62
747.842	62
748.16	61.98
748.478	61.94
748.796	61.93
749.114	61.92
749.432	61.94
749.749	61.93
750.067	61.96
750.385	61.94
750.703	61.93
751.02	61.97
751.338	61.98
751.655	62
751.973	62.04
752.29	61.99
752.608	62.02
752.925	62.02
753.242	61.99
753.56	62.03
753.877	62.01
754.194	62.02
754.511	62.02
754.828	62.02
755.145	62.01
755.462	62.01
755.779	62.06
756.096	62.09
756.413	62.07
756.73	62.09
757.047	62.11
757.364	62.16
757.68	62.18
757.997	62.19
758.314	62.19
758.63	62.21
758.947	62.17
759.264	62.21
759.58	62.19
759.896	62.19
760.213	62.21
760.529	62.21
760.846	62.24
761.162	62.26
761.478	62.28
761.794	62.28
762.11	62.32
762.426	62.32
762.743	62.31
763.059	62.29
763.375	62.29
763.69	62.34
764.006	62.35
764.322	62.32
764.638	62.32
764.954	62.32
765.27	62.34
765.585	62.32
765.901	62.36
766.216	62.38
766.532	62.39
766.848	62.42
767.163	62.42
767.478	62.42
767.794	62.41
768.109	62.43
768.424	62.44
768.74	62.41
769.055	62.41
769.37	62.43
769.685	62.44
770	62.42
770.315	62.37
770.63	62.33
770.945	62.31
771.26	62.29
771.575	62.26
771.89	62.3
772.205	62.25
772.52	62.25
772.834	62.21
773.149	62.21
773.464	62.19
773.778	62.18
774.093	62.15
774.407	62.15
774.722	62.12
775.036	62.1
775.351	62.1
775.665	62.12
775.979	62.16
776.293	62.13
776.608	62.1
776.922	62.08
777.236	62.12
777.55	62.15
777.864	62.13
778.178	62.14
778.492	62.16
778.806	62.13
779.12	62.09
779.434	62.05
779.747	62.06
780.061	62.09
780.375	62.13
780.689	62.13
781.002	62.08
781.316	62.08
781.629	62.08
781.943	62.09
782.256	62.08
782.57	62.12
782.883	62.17
783.196	62.22
783.51	62.23
783.823	62.24
784.136	62.27
784.449	62.31
784.762	62.29
785.075	62.29
785.388	62.28
785.701	62.35
786.014	62.36
786.327	62.36
786.64	62.33
786.953	62.35
787.266	62.38
787.578	62.41
787.891	62.42
788.204	62.44
788.516	62.4
788.829	62.42
789.141	62.47
789.454	62.48
789.766	62.48
790.079	62.45
790.391	62.46
790.703	62.47
791.016	62.53
791.328	62.56
791.64	62.5
791.952	62.54
792.264	62.5
792.576	62.49
792.888	62.5
793.2	62.48
793.512	62.54
793.824	62.57
794.136	62.57
794.448	62.57
794.76	62.55
795.071	62.54
795.383	62.52
795.695	62.52
796.006	62.49
796.318	62.45
796.629	62.45
796.941	62.43
797.252	62.45
797.564	62.45
797.875	62.43
798.186	62.42
798.497	62.41
798.809	62.4
799.12	62.38
799.431	62.39
799.742	62.41
800.053	62.44
800.364	62.4
800.675	62.37
800.986	62.38
801.297	62.44
801.608	62.39
801.918	62.41
802.229	62.37
802.54	62.39
802.851	62.41
803.161	62.38
803.472	62.41
803.782	62.32
804.093	62.3
804.403	62.34
804.714	62.33
805.024	62.4
805.334	62.38
805.645	62.36
805.955	62.38
806.265	62.4
806.575	62.44
806.885	62.45
807.195	62.46
807.505	62.44
807.815	62.44
808.125	62.45
808.435	62.42
808.745	62.44
809.055	62.52
809.365	62.53
809.674	62.54
809.984	62.51
810.294	62.54
810.603	62.58
810.913	62.58
811.222	62.57
811.532	62.58
811.841	62.62
812.151	62.67
812.46	62.68
812.769	62.63
813.079	62.66
813.388	62.66
813.697	62.68
814.006	62.65
814.315	62.65
814.624	62.62
814.933	62.67
815.242	62.67
815.551	62.67
815.86	62.7
816.169	62.67
816.478	62.72
816.786	62.75
817.095	62.81
817.404	62.83
817.712	62.83
818.021	62.84
818.33	62.82
818.638	62.85
818.947	62.85
819.255	62.86
819.563	62.87
819.872	62.89
820.18	62.92
820.488	62.96
820.796	62.96
821.105	62.97
821.413	62.98
821.721	63
822.029	63.01
822.337	63
822.645	63
822.953	62.99
823.26	62.99
823.568	62.99
823.876	62.97
824.184	62.98
824.491	62.99
824.799	62.98
825.107	62.98
825.414	62.99
825.722	63.01
826.029	63.02
826.337	63.03
826.644	63.05
826.951	63.08
827.259	63.09
827.566	63.09
827.873	63.09
828.18	63.11
828.488	63.11
828.795	63.09
829.102	63.09
829.409	63.11
829.716	63.1
830.023	63.1
830.329	63.1
830.636	63.11
830.943	63.09
831.25	63.04
831.557	63.05
831.863	63.08
832.17	63.08
832.476	63.09
832.783	63.07
833.089	63.02
833.396	63.01
833.702	62.98
834.009	62.98
834.315	62.96
834.621	62.96
834.928	62.97
835.234	62.94
835.54	62.95
835.846	62.97
836.152	62.97
836.458	63.01
836.764	63
837.07	62.97
837.376	63
837.682	62.92
837.988	62.89
838.293	62.88
838.599	62.85
838.905	62.78
839.211	62.77
839.516	62.69
839.822	62.65
840.127	62.64
840.433	62.68
840.738	62.64
841.044	62.67
841.349	62.75
841.654	62.77
841.959	62.67
842.265	62.73
842.57	62.73
842.875	62.73
843.18	62.74
843.485	62.84
843.79	63
844.095	62.93
844.4	62.92
844.705	62.93
845.01	62.86
845.315	62.91
845.619	62.95
845.924	62.91
846.229	62.97
846.533	62.97
846.838	63.01
847.142	62.94
847.447	62.95
847.751	62.98
848.056	63.04
848.36	63.11
848.664	63.2
848.969	63.25
849.273	63.2
849.577	63.29
849.881	63.34
850.185	63.52
850.489	63.75
850.794	63.87
851.097	64.06
851.401	64.07
851.705	64.12
852.009	64.26
852.313	64.27
852.617	64.4
852.92	64.29
853.224	64.33
853.528	64.23
853.831	64.3
854.135	64.26
854.438	64.38
854.742	64.26
855.045	64.16
855.349	64.35
855.652	64.37
855.955	64.5
856.259	64.44
856.562	64.5
856.865	64.33
857.168	64.04
857.471	64
857.774	64
858.077	63.93
858.38	64.05
858.683	64.06
858.986	64.04
859.289	63.97
859.592	64.02
859.894	64.02
860.197	64.25
860.5	64.19
860.802	63.96
861.105	63.92
861.407	63.78
861.71	63.82
862.012	63.78
862.315	63.69
862.617	63.73
862.919	63.58
863.222	63.44
863.524	63.38
863.826	63.49
864.128	63.28
864.43	63.21
864.732	63.19
865.034	63.17
865.336	63.25
865.638	63.26
865.94	63.27
866.242	63.18
866.544	63.11
866.846	63.02
867.147	63.11
867.449	63.16
867.751	62.99
868.052	62.94
868.354	62.86
868.655	62.84
868.957	62.79
869.258	62.79
869.56	63.03
869.861	63.13
870.162	63.02
870.463	63.15
870.765	63.17
871.066	63.02
871.367	62.9
871.668	62.91
871.969	63
872.27	62.96
872.571	62.88
872.872	62.85
873.173	62.95
873.473	62.89
873.774	63.04
874.075	63.03
874.376	62.99
874.676	62.95
874.977	62.9
875.277	62.83
875.578	62.86
875.878	62.73
876.179	62.65
876.479	62.77
876.78	62.8
877.08	62.9
877.38	62.73
877.68	62.64
877.981	62.55
878.281	62.57
878.581	62.61
