Data from UWBM109429_Reflection_00010.txt Node
Date: Sun May 02 13:54:49 EDT 2021
User: vgr7
Spectrometer: USB2G7710
Scans to average: 10
Trigger mode: 4
Integration Time (sec): 1.000000E-1
Electric dark correction enabled: true
Boxcar width: 20
XAxis mode: Wavelengths
Number of Pixels in Spectrum: 2048
>>>>>Begin Spectral Data<<<<<
177.721	104.31
178.105	128.37
178.488	126.8
178.871	114.75
179.254	97.32
179.636	72.5
180.019	60.23
180.402	62.82
180.785	62.79
181.168	59.85
181.55	54.13
181.933	52.87
182.316	47.69
182.698	44.73
183.081	43.4
183.463	39.54
183.846	43.81
184.228	45.17
184.611	40.29
184.993	38.5
185.376	38.54
185.758	38.44
186.14	35.7
186.522	34.2
186.904	35.2
187.287	36.88
187.669	35.58
188.051	35.15
188.433	34.66
188.815	33.24
189.197	34.51
189.579	34.89
189.961	32.27
190.342	31.79
190.724	31.05
191.106	29.48
191.488	30.05
191.869	30.35
192.251	28.06
192.633	27.03
193.014	26.2
193.396	23.87
193.777	24.48
194.159	23.09
194.54	22.23
194.922	21.58
195.303	21.15
195.684	20.61
196.065	19.56
196.447	19.67
196.828	19.11
197.209	19.56
197.59	17.94
197.971	18.73
198.352	19.95
198.733	20.29
199.114	21.2
199.495	19.49
199.876	17.6
200.257	19.95
200.638	19.92
201.018	20.23
201.399	19.94
201.78	19.25
202.16	18.47
202.541	17.36
202.922	16.97
203.302	17.83
203.683	18.36
204.063	17.89
204.444	17.05
204.824	16.56
205.204	17.04
205.585	18.14
205.965	18.06
206.345	18.83
206.725	19.73
207.106	19.34
207.486	18.86
207.866	19.53
208.246	19.45
208.626	19.33
209.006	20.23
209.386	19.85
209.766	19.76
210.145	20.06
210.525	20.58
210.905	22.41
211.285	21.57
211.664	22.37
212.044	21.17
212.424	21.21
212.803	20.74
213.183	20.72
213.562	20.55
213.942	19.32
214.321	18.84
214.701	18.15
215.08	18.4
215.459	19.25
215.838	17.38
216.218	16
216.597	15.82
216.976	16.4
217.355	17.21
217.734	18.77
218.113	19.79
218.492	18.57
218.871	17.96
219.25	17.74
219.629	18.48
220.008	18.92
220.387	18.1
220.766	18.39
221.144	17.72
221.523	18.43
221.902	16.63
222.28	15.24
222.659	15.5
223.037	15.28
223.416	15.42
223.794	15.43
224.173	15.27
224.551	14.45
224.929	14.64
225.308	14.59
225.686	14.44
226.064	13.76
226.442	13.02
226.821	13.44
227.199	12.94
227.577	13.29
227.955	13.28
228.333	13.09
228.711	12.51
229.089	11.91
229.467	12.06
229.845	12.1
230.222	11.9
230.6	11.67
230.978	11.35
231.356	11.53
231.733	11.61
232.111	11.22
232.488	10.94
232.866	10.45
233.243	10.04
233.621	9.7
233.998	9.63
234.376	9.39
234.753	8.98
235.13	8.59
235.508	8.47
235.885	8.25
236.262	7.95
236.639	7.76
237.016	7.49
237.393	7.49
237.77	7.51
238.147	7.35
238.524	7.16
238.901	6.93
239.278	6.73
239.655	6.65
240.032	6.58
240.409	6.52
240.785	6.48
241.162	6.39
241.539	6.34
241.915	6.36
242.292	6.29
242.668	6.24
243.045	6.16
243.421	6.11
243.798	6.1
244.174	6.14
244.551	6.17
244.927	6.13
245.303	6.11
245.679	6.13
246.056	6.07
246.432	6.07
246.808	6
247.184	6
247.56	6.01
247.936	6
248.312	6.02
248.688	6.02
249.064	6
249.44	5.96
249.815	5.93
250.191	5.89
250.567	5.89
250.943	5.85
251.318	5.8
251.694	5.8
252.069	5.77
252.445	5.75
252.82	5.72
253.196	5.65
253.571	5.61
253.947	5.61
254.322	5.6
254.697	5.59
255.073	5.54
255.448	5.55
255.823	5.5
256.198	5.48
256.573	5.46
256.948	5.45
257.323	5.4
257.698	5.35
258.073	5.32
258.448	5.3
258.823	5.28
259.198	5.23
259.573	5.19
259.948	5.18
260.322	5.15
260.697	5.12
261.072	5.09
261.446	5.09
261.821	5.08
262.195	5.08
262.57	5.07
262.944	5.04
263.319	5.03
263.693	5
264.067	4.98
264.442	4.96
264.816	4.95
265.19	4.94
265.564	4.93
265.938	4.93
266.313	4.92
266.687	4.92
267.061	4.91
267.435	4.91
267.809	4.9
268.183	4.89
268.556	4.89
268.93	4.89
269.304	4.88
269.678	4.87
270.051	4.86
270.425	4.88
270.799	4.86
271.172	4.86
271.546	4.86
271.919	4.87
272.293	4.88
272.666	4.88
273.04	4.91
273.413	4.96
273.787	4.98
274.16	4.98
274.533	5
274.906	5.01
275.279	5.01
275.653	5.01
276.026	5.02
276.399	5.03
276.772	5.04
277.145	5.04
277.518	5.05
277.891	5.06
278.263	5.04
278.636	5.05
279.009	5.06
279.382	5.05
279.755	5.06
280.127	5.08
280.5	5.12
280.872	5.14
281.245	5.14
281.617	5.16
281.99	5.16
282.362	5.14
282.735	5.15
283.107	5.17
283.479	5.18
283.852	5.19
284.224	5.2
284.596	5.22
284.968	5.21
285.34	5.23
285.713	5.23
286.085	5.25
286.457	5.26
286.829	5.26
287.201	5.28
287.572	5.28
287.944	5.31
288.316	5.3
288.688	5.3
289.06	5.31
289.431	5.34
289.803	5.36
290.175	5.39
290.546	5.42
290.918	5.45
291.289	5.47
291.661	5.49
292.032	5.52
292.403	5.54
292.775	5.57
293.146	5.59
293.517	5.64
293.889	5.67
294.26	5.71
294.631	5.77
295.002	5.81
295.373	5.84
295.744	5.86
296.115	5.89
296.486	5.95
296.857	5.99
297.228	6.04
297.599	6.09
297.97	6.14
298.34	6.18
298.711	6.21
299.082	6.26
299.452	6.31
299.823	6.37
300.194	6.43
300.564	6.47
300.935	6.52
301.305	6.56
301.676	6.6
302.046	6.66
302.416	6.7
302.787	6.73
303.157	6.78
303.527	6.84
303.897	6.89
304.267	6.96
304.637	7.03
305.008	7.09
305.378	7.14
305.748	7.2
306.117	7.26
306.487	7.34
306.857	7.41
307.227	7.47
307.597	7.54
307.967	7.6
308.336	7.67
308.706	7.72
309.076	7.76
309.445	7.82
309.815	7.86
310.184	7.92
310.554	7.97
310.923	8.02
311.293	8.07
311.662	8.1
312.031	8.15
312.401	8.21
312.77	8.27
313.139	8.31
313.508	8.36
313.877	8.42
314.246	8.47
314.616	8.51
314.985	8.54
315.353	8.59
315.722	8.62
316.091	8.67
316.46	8.71
316.829	8.78
317.198	8.84
317.567	8.89
317.935	8.96
318.304	9.02
318.672	9.07
319.041	9.14
319.41	9.18
319.778	9.25
320.147	9.28
320.515	9.33
320.883	9.36
321.252	9.41
321.62	9.45
321.988	9.49
322.357	9.52
322.725	9.56
323.093	9.59
323.461	9.6
323.829	9.64
324.197	9.68
324.565	9.7
324.933	9.74
325.301	9.75
325.669	9.8
326.037	9.81
326.405	9.84
326.772	9.87
327.14	9.9
327.508	9.92
327.875	9.94
328.243	9.96
328.61	9.98
328.978	9.99
329.346	10.01
329.713	10.04
330.08	10.07
330.448	10.07
330.815	10.1
331.182	10.12
331.55	10.16
331.917	10.18
332.284	10.18
332.651	10.2
333.018	10.23
333.385	10.25
333.752	10.27
334.119	10.28
334.486	10.31
334.853	10.32
335.22	10.35
335.587	10.39
335.954	10.41
336.32	10.42
336.687	10.43
337.054	10.45
337.42	10.48
337.787	10.51
338.153	10.52
338.52	10.54
338.886	10.54
339.253	10.55
339.619	10.57
339.986	10.57
340.352	10.59
340.718	10.6
341.084	10.61
341.451	10.61
341.817	10.63
342.183	10.64
342.549	10.65
342.915	10.65
343.281	10.68
343.647	10.68
344.013	10.69
344.379	10.7
344.745	10.71
345.11	10.71
345.476	10.73
345.842	10.74
346.208	10.74
346.573	10.75
346.939	10.75
347.304	10.77
347.67	10.77
348.035	10.77
348.401	10.78
348.766	10.8
349.132	10.81
349.497	10.81
349.862	10.81
350.228	10.81
350.593	10.8
350.958	10.8
351.323	10.8
351.688	10.8
352.053	10.8
352.418	10.8
352.783	10.77
353.148	10.77
353.513	10.76
353.878	10.76
354.243	10.75
354.608	10.73
354.972	10.73
355.337	10.72
355.702	10.7
356.066	10.69
356.431	10.67
356.795	10.65
357.16	10.63
357.524	10.63
357.889	10.61
358.253	10.59
358.618	10.57
358.982	10.55
359.346	10.53
359.71	10.51
360.075	10.49
360.439	10.47
360.803	10.44
361.167	10.42
361.531	10.39
361.895	10.36
362.259	10.32
362.623	10.29
362.987	10.27
363.351	10.24
363.714	10.21
364.078	10.17
364.442	10.13
364.806	10.09
365.169	10.06
365.533	10.03
365.896	9.99
366.26	9.95
366.623	9.91
366.987	9.86
367.35	9.81
367.714	9.78
368.077	9.74
368.44	9.69
368.803	9.64
369.167	9.59
369.53	9.54
369.893	9.48
370.256	9.42
370.619	9.36
370.982	9.31
371.345	9.25
371.708	9.2
372.071	9.14
372.434	9.08
372.797	9.03
373.159	8.98
373.522	8.93
373.885	8.88
374.247	8.82
374.61	8.76
374.973	8.71
375.335	8.65
375.698	8.59
376.06	8.53
376.423	8.48
376.785	8.43
377.147	8.37
377.51	8.32
377.872	8.26
378.234	8.21
378.596	8.14
378.958	8.08
379.321	8.03
379.683	7.98
380.045	7.91
380.407	7.87
380.769	7.81
381.13	7.76
381.492	7.71
381.854	7.66
382.216	7.61
382.578	7.56
382.939	7.5
383.301	7.46
383.663	7.41
384.024	7.35
384.386	7.3
384.747	7.26
385.109	7.22
385.47	7.17
385.832	7.12
386.193	7.08
386.554	7.04
386.916	6.99
387.277	6.94
387.638	6.9
387.999	6.86
388.36	6.82
388.721	6.78
389.082	6.74
389.443	6.7
389.804	6.66
390.165	6.63
390.526	6.59
390.887	6.56
391.248	6.53
391.609	6.49
391.969	6.45
392.33	6.42
392.691	6.39
393.051	6.35
393.412	6.31
393.772	6.28
394.133	6.24
394.493	6.21
394.854	6.18
395.214	6.14
395.574	6.1
395.935	6.07
396.295	6.03
396.655	6
397.015	5.96
397.376	5.93
397.736	5.9
398.096	5.86
398.456	5.82
398.816	5.8
399.176	5.76
399.535	5.73
399.895	5.7
400.255	5.67
400.615	5.64
400.975	5.6
401.334	5.57
401.694	5.54
402.054	5.52
402.413	5.49
402.773	5.46
403.132	5.43
403.492	5.4
403.851	5.38
404.211	5.36
404.57	5.34
404.929	5.32
405.288	5.3
405.648	5.28
406.007	5.26
406.366	5.25
406.725	5.23
407.084	5.22
407.443	5.2
407.802	5.19
408.161	5.17
408.52	5.16
408.879	5.15
409.238	5.13
409.596	5.12
409.955	5.11
410.314	5.1
410.673	5.09
411.031	5.08
411.39	5.07
411.748	5.06
412.107	5.05
412.465	5.05
412.824	5.07
413.182	5.08
413.54	5.09
413.899	5.12
414.257	5.14
414.615	5.18
414.974	5.2
415.332	5.23
415.69	5.26
416.048	5.29
416.406	5.32
416.764	5.35
417.122	5.37
417.48	5.4
417.838	5.42
418.195	5.44
418.553	5.45
418.911	5.46
419.269	5.46
419.626	5.45
419.984	5.43
420.342	5.4
420.699	5.37
421.057	5.34
421.414	5.31
421.772	5.28
422.129	5.26
422.486	5.24
422.844	5.23
423.201	5.22
423.558	5.21
423.915	5.2
424.273	5.19
424.63	5.18
424.987	5.17
425.344	5.16
425.701	5.15
426.058	5.14
426.415	5.14
426.772	5.13
427.128	5.11
427.485	5.09
427.842	5.07
428.199	5.04
428.555	5.01
428.912	4.98
429.269	4.94
429.625	4.9
429.982	4.87
430.338	4.83
430.695	4.8
431.051	4.75
431.407	4.72
431.764	4.69
432.12	4.67
432.476	4.65
432.832	4.64
433.189	4.63
433.545	4.63
433.901	4.64
434.257	4.67
434.613	4.69
434.969	4.72
435.325	4.75
435.681	4.79
436.036	4.82
436.392	4.84
436.748	4.86
437.104	4.87
437.459	4.89
437.815	4.91
438.171	4.94
438.526	4.96
438.882	5
439.237	5.04
439.593	5.08
439.948	5.11
440.304	5.15
440.659	5.17
441.014	5.19
441.369	5.22
441.725	5.24
442.08	5.26
442.435	5.27
442.79	5.27
443.145	5.28
443.5	5.27
443.855	5.27
444.21	5.27
444.565	5.26
444.92	5.25
445.275	5.24
445.629	5.23
445.984	5.21
446.339	5.19
446.693	5.18
447.048	5.15
447.403	5.13
447.757	5.1
448.112	5.07
448.466	5.04
448.82	5
449.175	4.97
449.529	4.94
449.883	4.91
450.238	4.88
450.592	4.87
450.946	4.85
451.3	4.85
451.654	4.85
452.008	4.85
452.362	4.85
452.716	4.85
453.07	4.85
453.424	4.83
453.778	4.82
454.132	4.8
454.486	4.79
454.839	4.76
455.193	4.74
455.547	4.72
455.9	4.68
456.254	4.66
456.607	4.63
456.961	4.6
457.314	4.57
457.668	4.56
458.021	4.56
458.375	4.55
458.728	4.55
459.081	4.55
459.434	4.56
459.787	4.57
460.141	4.58
460.494	4.59
460.847	4.6
461.2	4.61
461.553	4.62
461.906	4.63
462.259	4.64
462.611	4.64
462.964	4.65
463.317	4.66
463.67	4.67
464.022	4.69
464.375	4.7
464.728	4.71
465.08	4.72
465.433	4.73
465.785	4.73
466.138	4.72
466.49	4.71
466.843	4.7
467.195	4.68
467.547	4.67
467.899	4.65
468.252	4.63
468.604	4.61
468.956	4.59
469.308	4.58
469.66	4.59
470.012	4.59
470.364	4.6
470.716	4.62
471.068	4.64
471.42	4.67
471.772	4.7
472.123	4.71
472.475	4.73
472.827	4.75
473.178	4.76
473.53	4.78
473.882	4.8
474.233	4.83
474.585	4.87
474.936	4.94
475.288	5.05
475.639	5.18
475.99	5.33
476.342	5.49
476.693	5.68
477.044	5.86
477.395	6.05
477.746	6.24
478.097	6.43
478.448	6.63
478.8	6.82
479.15	7
479.501	7.16
479.852	7.3
480.203	7.44
480.554	7.58
480.905	7.7
481.255	7.82
481.606	7.94
481.957	8.05
482.307	8.15
482.658	8.24
483.009	8.34
483.359	8.43
483.709	8.52
484.06	8.6
484.41	8.68
484.761	8.76
485.111	8.83
485.461	8.9
485.811	8.98
486.162	9.04
486.512	9.09
486.862	9.14
487.212	9.16
487.562	9.18
487.912	9.19
488.262	9.2
488.612	9.19
488.961	9.17
489.311	9.12
489.661	9.05
490.011	8.95
490.36	8.83
490.71	8.7
491.06	8.56
491.409	8.41
491.759	8.25
492.108	8.08
492.458	7.91
492.807	7.74
493.157	7.56
493.506	7.39
493.855	7.24
494.204	7.1
494.554	6.96
494.903	6.84
495.252	6.72
495.601	6.61
495.95	6.5
496.299	6.41
496.648	6.32
496.997	6.24
497.346	6.16
497.695	6.09
498.043	6.03
498.392	5.97
498.741	5.91
499.09	5.87
499.438	5.82
499.787	5.79
500.135	5.76
500.484	5.74
500.832	5.73
501.181	5.74
501.529	5.77
501.878	5.81
502.226	5.86
502.574	5.92
502.923	5.98
503.271	6.05
503.619	6.12
503.967	6.2
504.315	6.27
504.663	6.34
505.011	6.42
505.359	6.5
505.707	6.58
506.055	6.67
506.403	6.76
506.751	6.85
507.098	6.95
507.446	7.05
507.794	7.16
508.141	7.27
508.489	7.38
508.837	7.5
509.184	7.63
509.531	7.76
509.879	7.89
510.226	8.03
510.574	8.19
510.921	8.34
511.268	8.5
511.616	8.67
511.963	8.84
512.31	9.02
512.657	9.19
513.004	9.36
513.351	9.52
513.698	9.67
514.045	9.82
514.392	9.96
514.739	10.08
515.086	10.21
515.432	10.33
515.779	10.45
516.126	10.58
516.473	10.72
516.819	10.87
517.166	11.03
517.512	11.21
517.859	11.41
518.205	11.61
518.552	11.84
518.898	12.09
519.245	12.37
519.591	12.72
519.937	13.12
520.283	13.58
520.629	14.09
520.976	14.63
521.322	15.19
521.668	15.76
522.014	16.34
522.36	16.92
522.706	17.49
523.052	18.06
523.398	18.58
523.743	19.07
524.089	19.5
524.435	19.92
524.781	20.32
525.126	20.72
525.472	21.11
525.817	21.5
526.163	21.87
526.509	22.23
526.854	22.6
527.199	22.97
527.545	23.33
527.89	23.72
528.235	24.09
528.581	24.45
528.926	24.79
529.271	25.11
529.616	25.42
529.961	25.73
530.306	26.01
530.651	26.28
530.996	26.53
531.341	26.75
531.686	26.96
532.031	27.16
532.376	27.38
532.721	27.62
533.065	27.89
533.41	28.18
533.755	28.43
534.099	28.67
534.444	28.87
534.788	29.05
535.133	29.22
535.477	29.37
535.822	29.5
536.166	29.6
536.51	29.65
536.855	29.66
537.199	29.63
537.543	29.6
537.887	29.61
538.231	29.65
538.576	29.69
538.92	29.71
539.264	29.73
539.608	29.73
539.951	29.71
540.295	29.69
540.639	29.66
540.983	29.61
541.327	29.55
541.671	29.47
542.014	29.42
542.358	29.38
542.701	29.4
543.045	29.49
543.389	29.61
543.732	29.74
544.075	29.89
544.419	30.05
544.762	30.23
545.105	30.42
545.449	30.63
545.792	30.84
546.135	31.05
546.478	31.23
546.821	31.37
547.165	31.45
547.508	31.49
547.851	31.48
548.194	31.45
548.536	31.37
548.879	31.27
549.222	31.14
549.565	31.01
549.908	30.89
550.25	30.79
550.593	30.75
550.936	30.77
551.278	30.84
551.621	30.95
551.963	31.07
552.306	31.21
552.648	31.37
552.991	31.57
553.333	31.78
553.675	32.04
554.017	32.32
554.36	32.63
554.702	32.97
555.044	33.35
555.386	33.76
555.728	34.21
556.07	34.61
556.412	35.02
556.754	35.37
557.096	35.66
557.438	35.94
557.78	36.24
558.121	36.54
558.463	36.84
558.805	37.13
559.147	37.44
559.488	37.73
559.83	38.03
560.171	38.32
560.513	38.61
560.854	38.9
561.196	39.19
561.537	39.46
561.878	39.73
562.22	39.99
562.561	40.24
562.902	40.51
563.243	40.77
563.584	41.03
563.925	41.29
564.266	41.54
564.607	41.8
564.948	42.04
565.289	42.28
565.63	42.53
565.971	42.77
566.312	43.02
566.653	43.26
566.993	43.5
567.334	43.71
567.675	43.92
568.015	44.14
568.356	44.35
568.696	44.55
569.037	44.76
569.377	44.96
569.718	45.15
570.058	45.33
570.398	45.5
570.739	45.67
571.079	45.83
571.419	46
571.759	46.16
572.099	46.31
572.439	46.47
572.779	46.63
573.119	46.77
573.459	46.92
573.799	47.05
574.139	47.2
574.479	47.35
574.819	47.48
575.158	47.62
575.498	47.77
575.838	47.91
576.177	48.05
576.517	48.19
576.856	48.31
577.196	48.44
577.535	48.57
577.875	48.7
578.214	48.83
578.553	48.96
578.893	49.08
579.232	49.2
579.571	49.33
579.91	49.46
580.25	49.57
580.589	49.7
580.928	49.82
581.267	49.97
581.606	50.11
581.945	50.22
582.283	50.34
582.622	50.48
582.961	50.62
583.3	50.74
583.639	50.87
583.977	51
584.316	51.13
584.654	51.26
584.993	51.39
585.332	51.51
585.67	51.63
586.008	51.75
586.347	51.88
586.685	52
587.024	52.11
587.362	52.23
587.7	52.36
588.038	52.49
588.376	52.62
588.715	52.75
589.053	52.88
589.391	53
589.729	53.13
590.067	53.26
590.404	53.38
590.742	53.5
591.08	53.62
591.418	53.74
591.756	53.83
592.093	53.93
592.431	54.04
592.769	54.13
593.106	54.22
593.444	54.31
593.781	54.39
594.119	54.47
594.456	54.55
594.793	54.63
595.131	54.72
595.468	54.79
595.805	54.9
596.143	54.99
596.48	55.09
596.817	55.19
597.154	55.29
597.491	55.4
597.828	55.49
598.165	55.59
598.502	55.69
598.839	55.77
599.176	55.86
599.512	55.94
599.849	56.01
600.186	56.1
600.523	56.17
600.859	56.24
601.196	56.31
601.532	56.39
601.869	56.46
602.205	56.53
602.542	56.59
602.878	56.66
603.215	56.72
603.551	56.78
603.887	56.84
604.223	56.9
604.56	56.97
604.896	57.02
605.232	57.08
605.568	57.13
605.904	57.18
606.24	57.22
606.576	57.27
606.912	57.31
607.248	57.36
607.583	57.42
607.919	57.47
608.255	57.52
608.591	57.56
608.926	57.61
609.262	57.66
609.597	57.69
609.933	57.72
610.268	57.74
610.604	57.78
610.939	57.81
611.275	57.83
611.61	57.87
611.945	57.9
612.281	57.92
612.616	57.97
612.951	58
613.286	58.03
613.621	58.07
613.956	58.1
614.291	58.13
614.626	58.18
614.961	58.22
615.296	58.24
615.631	58.28
615.966	58.31
616.3	58.34
616.635	58.37
616.97	58.4
617.304	58.44
617.639	58.49
617.973	58.52
618.308	58.56
618.642	58.61
618.977	58.66
619.311	58.71
619.646	58.77
619.98	58.83
620.314	58.89
620.648	58.96
620.983	59.01
621.317	59.04
621.651	59.09
621.985	59.14
622.319	59.18
622.653	59.21
622.987	59.26
623.321	59.3
623.655	59.33
623.988	59.37
624.322	59.39
624.656	59.43
624.99	59.47
625.323	59.5
625.657	59.53
625.99	59.56
626.324	59.59
626.657	59.63
626.991	59.66
627.324	59.68
627.658	59.71
627.991	59.75
628.324	59.78
628.657	59.81
628.991	59.85
629.324	59.88
629.657	59.91
629.99	59.94
630.323	59.98
630.656	60.02
630.989	60.06
631.322	60.08
631.655	60.11
631.987	60.13
632.32	60.16
632.653	60.2
632.986	60.23
633.318	60.25
633.651	60.27
633.984	60.3
634.316	60.3
634.649	60.33
634.981	60.36
635.313	60.37
635.646	60.42
635.978	60.44
636.31	60.48
636.643	60.51
636.975	60.53
637.307	60.57
637.639	60.62
637.971	60.64
638.303	60.67
638.635	60.69
638.967	60.72
639.299	60.75
639.631	60.79
639.963	60.82
640.295	60.86
640.626	60.91
640.958	60.96
641.29	61
641.621	61.03
641.953	61.04
642.285	61.07
642.616	61.1
642.948	61.13
643.279	61.17
643.61	61.22
643.942	61.23
644.273	61.26
644.604	61.28
644.936	61.31
645.267	61.36
645.598	61.38
645.929	61.4
646.26	61.42
646.591	61.44
646.922	61.47
647.253	61.52
647.584	61.52
647.915	61.55
648.245	61.57
648.576	61.59
648.907	61.61
649.238	61.63
649.568	61.66
649.899	61.69
650.229	61.71
650.56	61.76
650.89	61.79
651.221	61.81
651.551	61.86
651.882	61.89
652.212	61.92
652.542	61.95
652.872	62
653.203	62.02
653.533	62.05
653.863	62.09
654.193	62.11
654.523	62.13
654.853	62.14
655.183	62.16
655.513	62.2
655.843	62.23
656.172	62.26
656.502	62.27
656.832	62.28
657.162	62.28
657.491	62.28
657.821	62.29
658.15	62.3
658.48	62.32
658.809	62.33
659.139	62.35
659.468	62.36
659.798	62.4
660.127	62.42
660.456	62.43
660.785	62.44
661.115	62.48
661.444	62.51
661.773	62.53
662.102	62.56
662.431	62.59
662.76	62.59
663.089	62.6
663.418	62.61
663.747	62.63
664.076	62.65
664.404	62.66
664.733	62.67
665.062	62.67
665.39	62.69
665.719	62.71
666.048	62.7
666.376	62.7
666.705	62.73
667.033	62.74
667.362	62.76
667.69	62.75
668.018	62.77
668.347	62.78
668.675	62.8
669.003	62.82
669.331	62.84
669.659	62.86
669.987	62.89
670.315	62.9
670.643	62.96
670.971	62.97
671.299	63
671.627	63.04
671.955	63.06
672.283	63.07
672.61	63.1
672.938	63.13
673.266	63.14
673.593	63.16
673.921	63.19
674.249	63.22
674.576	63.23
674.904	63.25
675.231	63.27
675.558	63.29
675.886	63.27
676.213	63.31
676.54	63.32
676.867	63.35
677.195	63.38
677.522	63.38
677.849	63.4
678.176	63.43
678.503	63.45
678.83	63.46
679.157	63.49
679.484	63.52
679.81	63.54
680.137	63.56
680.464	63.58
680.791	63.61
681.117	63.63
681.444	63.63
681.771	63.65
682.097	63.65
682.424	63.66
682.75	63.67
683.077	63.69
683.403	63.7
683.729	63.71
684.056	63.71
684.382	63.75
684.708	63.77
685.034	63.77
685.36	63.78
685.686	63.8
686.012	63.81
686.339	63.82
686.664	63.83
686.99	63.83
687.316	63.84
687.642	63.83
687.968	63.86
688.294	63.89
688.619	63.89
688.945	63.91
689.271	63.94
689.596	63.96
689.922	63.98
690.247	64
690.573	64
690.898	64.01
691.224	64.03
691.549	64.07
691.874	64.1
692.2	64.13
692.525	64.14
692.85	64.15
693.175	64.15
693.5	64.16
693.825	64.19
694.15	64.19
694.475	64.21
694.8	64.23
695.125	64.26
695.45	64.28
695.775	64.31
696.099	64.3
696.424	64.33
696.749	64.35
697.073	64.36
697.398	64.36
697.723	64.38
698.047	64.38
698.372	64.41
698.696	64.42
699.02	64.42
699.345	64.43
699.669	64.44
699.993	64.46
700.318	64.47
700.642	64.47
700.966	64.5
701.29	64.48
701.614	64.5
701.938	64.5
702.262	64.53
702.586	64.53
702.91	64.55
703.234	64.57
703.557	64.56
703.881	64.58
704.205	64.62
704.529	64.63
704.852	64.63
705.176	64.61
705.499	64.61
705.823	64.62
706.146	64.63
706.47	64.63
706.793	64.63
707.117	64.63
707.44	64.62
707.763	64.62
708.086	64.64
708.409	64.65
708.733	64.66
709.056	64.65
709.379	64.68
709.702	64.66
710.025	64.67
710.348	64.68
710.671	64.73
710.993	64.75
711.316	64.76
711.639	64.77
711.962	64.78
712.284	64.82
712.607	64.84
712.93	64.86
713.252	64.87
713.575	64.87
713.897	64.91
714.22	64.92
714.542	64.95
714.864	64.92
715.187	64.96
715.509	64.95
715.831	64.97
716.153	64.98
716.475	64.99
716.798	64.99
717.12	64.99
717.442	64.98
717.764	64.98
718.085	65.01
718.407	65.05
718.729	65.08
719.051	65.12
719.373	65.16
719.695	65.2
720.016	65.25
720.338	65.26
720.659	65.29
720.981	65.32
721.302	65.35
721.624	65.35
721.945	65.39
722.267	65.42
722.588	65.42
722.909	65.48
723.231	65.49
723.552	65.52
723.873	65.5
724.194	65.51
724.515	65.54
724.836	65.54
725.157	65.56
725.478	65.6
725.799	65.6
726.12	65.61
726.441	65.62
726.762	65.61
727.083	65.61
727.403	65.62
727.724	65.65
728.045	65.71
728.365	65.73
728.686	65.74
729.006	65.75
729.327	65.76
729.647	65.8
729.967	65.82
730.288	65.81
730.608	65.82
730.928	65.86
731.249	65.86
731.569	65.87
731.889	65.86
732.209	65.86
732.529	65.85
732.849	65.85
733.169	65.87
733.489	65.89
733.809	65.9
734.129	65.91
734.448	65.93
734.768	65.98
735.088	65.97
735.408	66.02
735.727	66.05
736.047	66.03
736.366	66.04
736.686	66.04
737.005	66.05
737.325	66.03
737.644	66.04
737.963	66.07
738.283	66.08
738.602	66.07
738.921	66.06
739.24	66.07
739.56	66.07
739.879	66.1
740.198	66.13
740.517	66.12
740.836	66.07
741.155	66.05
741.473	66.05
741.792	66.06
742.111	66.08
742.43	66.09
742.748	66.08
743.067	66.11
743.386	66.14
743.704	66.16
744.023	66.14
744.341	66.15
744.66	66.17
744.978	66.17
745.297	66.18
745.615	66.18
745.933	66.18
746.252	66.18
746.57	66.17
746.888	66.16
747.206	66.14
747.524	66.14
747.842	66.1
748.16	66.09
748.478	66.02
748.796	66
749.114	66.02
749.432	66.01
749.749	66.03
750.067	66.07
750.385	66.1
750.703	66.1
751.02	66.1
751.338	66.08
751.655	66.07
751.973	66.17
752.29	66.12
752.608	66.14
752.925	66.15
753.242	66.12
753.56	66.14
753.877	66.19
754.194	66.2
754.511	66.2
754.828	66.18
755.145	66.2
755.462	66.24
755.779	66.3
756.096	66.34
756.413	66.39
756.73	66.38
757.047	66.42
757.364	66.46
757.68	66.48
757.997	66.49
758.314	66.52
758.63	66.55
758.947	66.59
759.264	66.59
759.58	66.59
759.896	66.65
760.213	66.71
760.529	66.7
760.846	66.74
761.162	66.77
761.478	66.79
761.794	66.8
762.11	66.8
762.426	66.81
762.743	66.8
763.059	66.8
763.375	66.77
763.69	66.76
764.006	66.77
764.322	66.77
764.638	66.79
764.954	66.78
765.27	66.84
765.585	66.85
765.901	66.86
766.216	66.88
766.532	66.87
766.848	66.88
767.163	66.91
767.478	66.9
767.794	66.96
768.109	66.95
768.424	66.92
768.74	66.9
769.055	66.88
769.37	66.88
769.685	66.91
770	66.9
770.315	66.86
770.63	66.81
770.945	66.81
771.26	66.78
771.575	66.77
771.89	66.76
772.205	66.76
772.52	66.82
772.834	66.79
773.149	66.76
773.464	66.79
773.778	66.74
774.093	66.77
774.407	66.73
774.722	66.73
775.036	66.73
775.351	66.76
775.665	66.79
775.979	66.81
776.293	66.84
776.608	66.93
776.922	66.95
777.236	66.97
777.55	67.01
777.864	67.02
778.178	66.97
778.492	66.97
778.806	66.94
779.12	66.96
779.434	66.97
779.747	66.99
780.061	66.92
780.375	66.98
780.689	66.94
781.002	67.01
781.316	67
781.629	66.98
781.943	67.03
782.256	67.02
782.57	67
782.883	66.98
783.196	66.99
783.51	67.05
783.823	67.06
784.136	67.12
784.449	67.13
784.762	67.15
785.075	67.15
785.388	67.17
785.701	67.14
786.014	67.13
786.327	67.13
786.64	67.21
786.953	67.19
787.266	67.23
787.578	67.27
787.891	67.29
788.204	67.27
788.516	67.23
788.829	67.27
789.141	67.24
789.454	67.23
789.766	67.18
790.079	67.18
790.391	67.15
790.703	67.11
791.016	67.16
791.328	67.12
791.64	67.18
791.952	67.2
792.264	67.19
792.576	67.17
792.888	67.18
793.2	67.16
793.512	67.13
793.824	67.09
794.136	67.03
794.448	67.05
794.76	67
795.071	66.93
795.383	66.99
795.695	66.97
796.006	67.01
796.318	66.97
796.629	66.97
796.941	66.97
797.252	67.01
797.564	66.99
797.875	67
798.186	66.95
798.497	66.98
798.809	67.05
799.12	67.1
799.431	67.11
799.742	67.1
800.053	67.08
800.364	67.14
800.675	67.15
800.986	67.21
801.297	67.27
801.608	67.18
801.918	67.15
802.229	67.12
802.54	67.14
802.851	67.13
803.161	67.09
803.472	67.13
803.782	67.13
804.093	67.16
804.403	67.07
804.714	67.09
805.024	67.08
805.334	67.09
805.645	67.16
805.955	67.19
806.265	67.18
806.575	67.19
806.885	67.24
807.195	67.27
807.505	67.29
807.815	67.37
808.125	67.28
808.435	67.33
808.745	67.34
809.055	67.42
809.365	67.48
809.674	67.46
809.984	67.39
810.294	67.44
810.603	67.49
810.913	67.49
811.222	67.55
811.532	67.47
811.841	67.45
812.151	67.39
812.46	67.41
812.769	67.4
813.079	67.43
813.388	67.45
813.697	67.44
814.006	67.42
814.315	67.45
814.624	67.5
814.933	67.47
815.242	67.55
815.551	67.56
815.86	67.61
816.169	67.71
816.478	67.78
816.786	67.82
817.095	67.89
817.404	67.91
817.712	67.9
818.021	67.93
818.33	67.85
818.638	67.88
818.947	67.91
819.255	67.88
819.563	67.83
819.872	67.78
820.18	67.76
820.488	67.79
820.796	67.82
821.105	67.83
821.413	67.84
821.721	67.86
822.029	67.85
822.337	67.86
822.645	67.91
822.953	67.91
823.26	67.89
823.568	67.91
823.876	67.89
824.184	67.89
824.491	67.9
824.799	67.93
825.107	67.94
825.414	67.96
825.722	67.94
826.029	67.94
826.337	67.93
826.644	67.95
826.951	67.96
827.259	67.97
827.566	67.99
827.873	67.97
828.18	68
828.488	68.02
828.795	68
829.102	67.99
829.409	67.99
829.716	68
830.023	67.98
830.329	67.98
830.636	67.94
830.943	67.97
831.25	67.96
831.557	67.97
831.863	67.99
832.17	68.04
832.476	68.08
832.783	68.14
833.089	68.14
833.396	68.12
833.702	68.13
834.009	68.11
834.315	68.08
834.621	68.08
834.928	68.08
835.234	68
835.54	67.98
835.846	67.94
836.152	67.93
836.458	67.95
836.764	67.96
837.07	67.9
837.376	67.78
837.682	67.79
837.988	67.77
838.293	67.76
838.599	67.69
838.905	67.72
839.211	67.63
839.516	67.61
839.822	67.6
840.127	67.62
840.433	67.62
840.738	67.52
841.044	67.46
841.349	67.43
841.654	67.4
841.959	67.38
842.265	67.32
842.57	67.36
842.875	67.41
843.18	67.44
843.485	67.49
843.79	67.48
844.095	67.4
844.4	67.39
844.705	67.47
845.01	67.5
845.315	67.42
845.619	67.37
845.924	67.47
846.229	67.4
846.533	67.38
846.838	67.33
847.142	67.38
847.447	67.29
847.751	67.41
848.056	67.51
848.36	67.6
848.664	67.64
848.969	67.66
849.273	67.62
849.577	67.77
849.881	68.06
850.185	68
850.489	68.08
850.794	68.16
851.097	68.32
851.401	68.3
851.705	68.47
852.009	68.5
852.313	68.48
852.617	68.33
852.92	68.34
853.224	68.43
853.528	68.48
853.831	68.49
854.135	68.6
854.438	68.61
854.742	68.78
855.045	68.62
855.349	68.65
855.652	68.65
855.955	68.62
856.259	68.79
856.562	68.87
856.865	68.9
857.168	68.86
857.471	68.9
857.774	68.98
858.077	69.12
858.38	69.11
858.683	69.13
858.986	69.21
859.289	69.21
859.592	69.28
859.894	69.51
860.197	69.43
860.5	69.28
860.802	69.24
861.105	69.3
861.407	69.25
861.71	69.28
862.012	69.16
862.315	69.2
862.617	69.17
862.919	68.99
863.222	68.83
863.524	68.89
863.826	68.87
864.128	68.71
864.43	68.82
864.732	68.91
865.034	68.94
865.336	68.91
865.638	68.94
865.94	69.04
866.242	69.21
866.544	69.24
866.846	69.04
867.147	68.84
867.449	69.04
867.751	68.92
868.052	68.93
868.354	69.12
868.655	68.82
868.957	68.7
869.258	68.74
869.56	68.7
869.861	68.63
870.162	68.72
870.463	68.92
870.765	68.72
871.066	68.75
871.367	68.73
871.668	68.82
871.969	68.73
872.27	68.55
872.571	68.58
872.872	68.65
873.173	68.69
873.473	68.57
873.774	68.6
874.075	68.57
874.376	68.58
874.676	68.36
874.977	68.45
875.277	68.62
875.578	68.73
875.878	68.65
876.179	68.74
876.479	68.94
876.78	68.79
877.08	68.8
877.38	68.91
877.68	68.98
877.981	68.88
878.281	68.73
878.581	68.46
