Data from UWBM122453_Reflection_00001.txt Node
Date: Sun May 02 12:39:27 EDT 2021
User: vgr7
Spectrometer: USB2G7710
Scans to average: 10
Trigger mode: 4
Integration Time (sec): 1.000000E-1
Electric dark correction enabled: true
Boxcar width: 20
XAxis mode: Wavelengths
Number of Pixels in Spectrum: 2048
>>>>>Begin Spectral Data<<<<<
177.721	100.01
178.105	100.67
178.488	101.12
178.871	101.02
179.254	100.26
179.636	98.24
180.019	95.06
180.402	92.53
180.785	89.75
181.168	86.24
181.55	84.3
181.933	113.38
182.316	115.28
182.698	116.71
183.081	117.24
183.463	118.96
183.846	120.78
184.228	123.51
184.611	126.3
184.993	133.02
185.376	136.03
185.758	-134.05
186.14	-76.77
186.522	-39.03
186.904	-23.18
187.287	-8.08
187.669	-7.24
188.051	-5.45
188.433	-0.45
188.815	-5.9
189.197	-3.87
189.579	-3.68
189.961	-1.75
190.342	-3.99
190.724	1.62
191.106	-1.08
191.488	-0.33
191.869	-7.82
192.251	-7.84
192.633	-10.52
193.014	-13.48
193.396	-14.75
193.777	-5.7
194.159	-5.07
194.54	-8.1
194.922	-7.26
195.303	-3.85
195.684	-2.77
196.065	-3.4
196.447	-6.71
196.828	-7.23
197.209	-6.18
197.59	-18.88
197.971	-21.11
198.352	-19.38
198.733	-15.45
199.114	-14.86
199.495	-16.36
199.876	-14.75
200.257	-14.42
200.638	-13.39
201.018	-20.79
201.399	-20.77
201.78	-21.07
202.16	-20.31
202.541	-17.5
202.922	-17.69
203.302	-20.02
203.683	-20.15
204.063	-19.88
204.444	-17.59
204.824	-16.46
205.204	-14.69
205.585	-6.46
205.965	-6.81
206.345	-7
206.725	-12.75
207.106	-13.11
207.486	-11.53
207.866	-11.67
208.246	-11.73
208.626	-8.94
209.006	-4.33
209.386	-10.2
209.766	-11.35
210.145	-10.62
210.525	-12.4
210.905	-12.45
211.285	-11.02
211.664	-11.25
212.044	-9.24
212.424	-8.63
212.803	-14.21
213.183	-11.63
213.562	-11.29
213.942	-11.81
214.321	-14.24
214.701	-15.12
215.08	-13.06
215.459	-12.78
215.838	-13.71
216.218	-14.32
216.597	-14.98
216.976	-18.28
217.355	-17.63
217.734	-17.9
218.113	-17.97
218.492	-16.46
218.871	-15.59
219.25	-15.15
219.629	-15.62
220.008	-16.12
220.387	-14.94
220.766	-13.71
221.144	-14.68
221.523	-12.02
221.902	-10.42
222.28	-7.05
222.659	-5.21
223.037	-4.82
223.416	-3
223.794	-1.82
224.173	-2.22
224.551	-1.3
224.929	-0.29
225.308	1.16
225.686	0.99
226.064	1.59
226.442	2.13
226.821	1.98
227.199	1.65
227.577	1.06
227.955	0.73
228.333	0.84
228.711	0.84
229.089	1.57
229.467	1.31
229.845	1.94
230.222	1.81
230.6	2.2
230.978	2.42
231.356	2.09
231.733	2.43
232.111	2.55
232.488	2.58
232.866	2.6
233.243	2.59
233.621	2.65
233.998	2.6
234.376	2.94
234.753	3.21
235.13	3.39
235.508	4.12
235.885	4.18
236.262	4.2
236.639	4.6
237.016	4.57
237.393	4.51
237.77	4.28
238.147	4.25
238.524	4.29
238.901	4.28
239.278	4.38
239.655	4.48
240.032	4.42
240.409	4.51
240.785	4.45
241.162	4.55
241.539	4.53
241.915	4.5
242.292	4.47
242.668	4.45
243.045	4.48
243.421	4.37
243.798	4.32
244.174	4.35
244.551	4.26
244.927	4.08
245.303	4.04
245.679	4.08
246.056	4.04
246.432	3.99
246.808	3.76
247.184	3.74
247.56	3.7
247.936	3.72
248.312	3.72
248.688	3.76
249.064	3.74
249.44	3.71
249.815	3.7
250.191	3.65
250.567	3.63
250.943	3.69
251.318	3.7
251.694	3.66
252.069	3.58
252.445	3.58
252.82	3.68
253.196	3.69
253.571	3.67
253.947	3.73
254.322	3.68
254.697	3.81
255.073	3.79
255.448	3.76
255.823	3.73
256.198	3.68
256.573	3.5
256.948	3.47
257.323	3.47
257.698	3.42
258.073	3.4
258.448	3.28
258.823	3.27
259.198	3.28
259.573	3.29
259.948	3.33
260.322	3.31
260.697	3.31
261.072	3.31
261.446	3.3
261.821	3.27
262.195	3.24
262.57	3.22
262.944	3.21
263.319	3.2
263.693	3.21
264.067	3.23
264.442	3.34
264.816	3.33
265.19	3.32
265.564	3.37
265.938	3.34
266.313	3.39
266.687	3.34
267.061	3.34
267.435	3.33
267.809	3.32
268.183	3.28
268.556	3.28
268.93	3.28
269.304	3.27
269.678	3.25
270.051	3.21
270.425	3.2
270.799	3.23
271.172	3.22
271.546	3.22
271.919	3.2
272.293	3.18
272.666	3.19
273.04	3.19
273.413	3.15
273.787	3.14
274.16	3.15
274.533	3.18
274.906	3.16
275.279	3.19
275.653	3.19
276.026	3.16
276.399	3.13
276.772	3.11
277.145	3.16
277.518	3.18
277.891	3.2
278.263	3.22
278.636	3.22
279.009	3.25
279.382	3.23
279.755	3.18
280.127	3.2
280.5	3.19
280.872	3.17
281.245	3.27
281.617	3.29
281.99	3.31
282.362	3.33
282.735	3.33
283.107	3.32
283.479	3.35
283.852	3.37
284.224	3.39
284.596	3.36
284.968	3.24
285.34	3.24
285.713	3.23
286.085	3.14
286.457	3.14
286.829	3.13
287.201	3.13
287.572	3.19
287.944	3.19
288.316	3.22
288.688	3.24
289.06	3.24
289.431	3.23
289.803	3.23
290.175	3.23
290.546	3.24
290.918	3.24
291.289	3.21
291.661	3.22
292.032	3.18
292.403	3.2
292.775	3.28
293.146	3.28
293.517	3.31
293.889	3.37
294.26	3.35
294.631	3.36
295.002	3.39
295.373	3.42
295.744	3.41
296.115	3.41
296.486	3.34
296.857	3.33
297.228	3.32
297.599	3.31
297.97	3.28
298.34	3.3
298.711	3.23
299.082	3.22
299.452	3.24
299.823	3.28
300.194	3.3
300.564	3.29
300.935	3.29
301.305	3.28
301.676	3.25
302.046	3.25
302.416	3.26
302.787	3.25
303.157	3.19
303.527	3.19
303.897	3.19
304.267	3.2
304.637	3.21
305.008	3.23
305.378	3.25
305.748	3.22
306.117	3.27
306.487	3.32
306.857	3.36
307.227	3.36
307.597	3.34
307.967	3.33
308.336	3.33
308.706	3.35
309.076	3.34
309.445	3.34
309.815	3.22
310.184	3.21
310.554	3.16
310.923	3.2
311.293	3.21
311.662	3.22
312.031	3.22
312.401	3.21
312.77	3.18
313.139	3.18
313.508	3.18
313.877	3.14
314.246	3.12
314.616	3.08
314.985	3.02
315.353	3.02
315.722	3.01
316.091	3
316.46	3
316.829	3.03
317.198	3.04
317.567	3.17
317.935	3.16
318.304	3.2
318.672	3.22
319.041	3.22
319.41	3.23
319.778	3.24
320.147	3.23
320.515	3.22
320.883	3.21
321.252	3.15
321.62	3.18
321.988	3.17
322.357	3.17
322.725	3.23
323.093	3.23
323.461	3.23
323.829	3.22
324.197	3.21
324.565	3.2
324.933	3.21
325.301	3.2
325.669	3.21
326.037	3.2
326.405	3.14
326.772	3.12
327.14	3.1
327.508	3.09
327.875	3.09
328.243	3.09
328.61	3.05
328.978	3.06
329.346	3.08
329.713	3.06
330.08	3.04
330.448	3.04
330.815	3.02
331.182	3.02
331.55	3.01
331.917	3.02
332.284	3.03
332.651	3.03
333.018	3.03
333.385	3.04
333.752	3.04
334.119	3.04
334.486	3.05
334.853	3.03
335.22	3.05
335.587	3.02
335.954	3.03
336.32	3.05
336.687	3.05
337.054	3.05
337.42	3.07
337.787	3.07
338.153	3.1
338.52	3.13
338.886	3.16
339.253	3.15
339.619	3.13
339.986	3.11
340.352	3.1
340.718	3.1
341.084	3.1
341.451	3.1
341.817	3.1
342.183	3.08
342.549	3.11
342.915	3.12
343.281	3.13
343.647	3.14
344.013	3.16
344.379	3.16
344.745	3.18
345.11	3.2
345.476	3.21
345.842	3.22
346.208	3.2
346.573	3.19
346.939	3.21
347.304	3.2
347.67	3.19
348.035	3.2
348.401	3.19
348.766	3.22
349.132	3.22
349.497	3.24
349.862	3.24
350.228	3.25
350.593	3.27
350.958	3.27
351.323	3.25
351.688	3.26
352.053	3.25
352.418	3.25
352.783	3.25
353.148	3.23
353.513	3.21
353.878	3.23
354.243	3.22
354.608	3.23
354.972	3.24
355.337	3.23
355.702	3.22
356.066	3.22
356.431	3.21
356.795	3.2
357.16	3.19
357.524	3.19
357.889	3.18
358.253	3.19
358.618	3.19
358.982	3.21
359.346	3.21
359.71	3.21
360.075	3.21
360.439	3.21
360.803	3.2
361.167	3.2
361.531	3.21
361.895	3.21
362.259	3.21
362.623	3.22
362.987	3.21
363.351	3.22
363.714	3.22
364.078	3.22
364.442	3.21
364.806	3.23
365.169	3.22
365.533	3.21
365.896	3.2
366.26	3.21
366.623	3.2
366.987	3.2
367.35	3.2
367.714	3.21
368.077	3.22
368.44	3.22
368.803	3.21
369.167	3.22
369.53	3.22
369.893	3.23
370.256	3.24
370.619	3.25
370.982	3.25
371.345	3.25
371.708	3.27
372.071	3.27
372.434	3.27
372.797	3.29
373.159	3.31
373.522	3.31
373.885	3.29
374.247	3.29
374.61	3.29
374.973	3.28
375.335	3.27
375.698	3.28
376.06	3.28
376.423	3.29
376.785	3.29
377.147	3.28
377.51	3.29
377.872	3.29
378.234	3.29
378.596	3.31
378.958	3.32
379.321	3.33
379.683	3.33
380.045	3.32
380.407	3.34
380.769	3.33
381.13	3.34
381.492	3.35
381.854	3.35
382.216	3.36
382.578	3.36
382.939	3.37
383.301	3.37
383.663	3.38
384.024	3.37
384.386	3.38
384.747	3.38
385.109	3.37
385.47	3.37
385.832	3.37
386.193	3.37
386.554	3.36
386.916	3.37
387.277	3.37
387.638	3.38
387.999	3.39
388.36	3.39
388.721	3.39
389.082	3.39
389.443	3.39
389.804	3.4
390.165	3.4
390.526	3.4
390.887	3.41
391.248	3.4
391.609	3.41
391.969	3.41
392.33	3.42
392.691	3.43
393.051	3.43
393.412	3.42
393.772	3.43
394.133	3.44
394.493	3.44
394.854	3.44
395.214	3.43
395.574	3.44
395.935	3.43
396.295	3.43
396.655	3.44
397.015	3.44
397.376	3.43
397.736	3.44
398.096	3.44
398.456	3.44
398.816	3.46
399.176	3.45
399.535	3.46
399.895	3.47
400.255	3.47
400.615	3.48
400.975	3.48
401.334	3.49
401.694	3.49
402.054	3.5
402.413	3.48
402.773	3.49
403.132	3.5
403.492	3.5
403.851	3.5
404.211	3.51
404.57	3.52
404.929	3.54
405.288	3.54
405.648	3.54
406.007	3.55
406.366	3.56
406.725	3.57
407.084	3.57
407.443	3.57
407.802	3.56
408.161	3.56
408.52	3.56
408.879	3.57
409.238	3.57
409.596	3.57
409.955	3.58
410.314	3.59
410.673	3.58
411.031	3.59
411.39	3.6
411.748	3.61
412.107	3.63
412.465	3.64
412.824	3.67
413.182	3.69
413.54	3.7
413.899	3.73
414.257	3.76
414.615	3.8
414.974	3.83
415.332	3.87
415.69	3.91
416.048	3.94
416.406	3.97
416.764	4.01
417.122	4.04
417.48	4.07
417.838	4.1
418.195	4.13
418.553	4.15
418.911	4.17
419.269	4.17
419.626	4.17
419.984	4.17
420.342	4.16
420.699	4.15
421.057	4.13
421.414	4.12
421.772	4.11
422.129	4.1
422.486	4.1
422.844	4.1
423.201	4.1
423.558	4.1
423.915	4.1
424.273	4.1
424.63	4.11
424.987	4.11
425.344	4.11
425.701	4.11
426.058	4.11
426.415	4.11
426.772	4.11
427.128	4.11
427.485	4.1
427.842	4.1
428.199	4.09
428.555	4.07
428.912	4.06
429.269	4.04
429.625	4.02
429.982	4
430.338	3.98
430.695	3.96
431.051	3.93
431.407	3.91
431.764	3.89
432.12	3.87
432.476	3.86
432.832	3.86
433.189	3.86
433.545	3.87
433.901	3.88
434.257	3.9
434.613	3.92
434.969	3.95
435.325	3.97
435.681	4.02
436.036	4.03
436.392	4.05
436.748	4.06
437.104	4.06
437.459	4.08
437.815	4.1
438.171	4.12
438.526	4.14
438.882	4.17
439.237	4.2
439.593	4.24
439.948	4.27
440.304	4.3
440.659	4.33
441.014	4.35
441.369	4.38
441.725	4.39
442.08	4.41
442.435	4.42
442.79	4.43
443.145	4.44
443.5	4.44
443.855	4.44
444.21	4.44
444.565	4.44
444.92	4.43
445.275	4.43
445.629	4.42
445.984	4.41
446.339	4.41
446.693	4.41
447.048	4.39
447.403	4.38
447.757	4.36
448.112	4.34
448.466	4.32
448.82	4.31
449.175	4.29
449.529	4.28
449.883	4.26
450.238	4.24
450.592	4.24
450.946	4.23
451.3	4.24
451.654	4.25
452.008	4.25
452.362	4.26
452.716	4.26
453.07	4.26
453.424	4.26
453.778	4.26
454.132	4.24
454.486	4.24
454.839	4.22
455.193	4.2
455.547	4.2
455.9	4.17
456.254	4.15
456.607	4.12
456.961	4.09
457.314	4.08
457.668	4.07
458.021	4.06
458.375	4.06
458.728	4.06
459.081	4.06
459.434	4.07
459.787	4.08
460.141	4.09
460.494	4.09
460.847	4.1
461.2	4.1
461.553	4.11
461.906	4.11
462.259	4.12
462.611	4.12
462.964	4.13
463.317	4.13
463.67	4.14
464.022	4.14
464.375	4.14
464.728	4.14
465.08	4.14
465.433	4.15
465.785	4.14
466.138	4.12
466.49	4.11
466.843	4.09
467.195	4.07
467.547	4.05
467.899	4.03
468.252	4
468.604	3.97
468.956	3.95
469.308	3.94
469.66	3.93
470.012	3.92
470.364	3.92
470.716	3.93
471.068	3.94
471.42	3.97
471.772	3.98
472.123	3.99
472.475	4.01
472.827	4.02
473.178	4.02
473.53	4.03
473.882	4.04
474.233	4.07
474.585	4.1
474.936	4.16
475.288	4.25
475.639	4.36
475.99	4.49
476.342	4.63
476.693	4.79
477.044	4.95
477.395	5.11
477.746	5.28
478.097	5.45
478.448	5.62
478.8	5.79
479.15	5.94
479.501	6.09
479.852	6.22
480.203	6.34
480.554	6.46
480.905	6.58
481.255	6.69
481.606	6.8
481.957	6.88
482.307	6.98
482.658	7.07
483.009	7.15
483.359	7.24
483.709	7.32
484.06	7.4
484.41	7.48
484.761	7.55
485.111	7.61
485.461	7.68
485.811	7.74
486.162	7.8
486.512	7.85
486.862	7.88
487.212	7.91
487.562	7.94
487.912	7.95
488.262	7.95
488.612	7.95
488.961	7.93
489.311	7.89
489.661	7.83
490.011	7.74
490.36	7.64
490.71	7.52
491.06	7.38
491.409	7.25
491.759	7.1
492.108	6.95
492.458	6.8
492.807	6.64
493.157	6.47
493.506	6.32
493.855	6.17
494.204	6.03
494.554	5.9
494.903	5.78
495.252	5.66
495.601	5.54
495.95	5.43
496.299	5.33
496.648	5.24
496.997	5.14
497.346	5.06
497.695	4.97
498.043	4.89
498.392	4.81
498.741	4.73
499.09	4.65
499.438	4.58
499.787	4.51
500.135	4.44
500.484	4.39
500.832	4.34
501.181	4.3
501.529	4.27
501.878	4.25
502.226	4.24
502.574	4.24
502.923	4.23
503.271	4.22
503.619	4.22
503.967	4.23
504.315	4.23
504.663	4.22
505.011	4.21
505.359	4.21
505.707	4.2
506.055	4.2
506.403	4.2
506.751	4.21
507.098	4.21
507.446	4.21
507.794	4.22
508.141	4.23
508.489	4.25
508.837	4.26
509.184	4.27
509.531	4.29
509.879	4.29
510.226	4.31
510.574	4.32
510.921	4.33
511.268	4.34
511.616	4.35
511.963	4.37
512.31	4.39
512.657	4.41
513.004	4.43
513.351	4.44
513.698	4.45
514.045	4.45
514.392	4.46
514.739	4.46
515.086	4.45
515.432	4.45
515.779	4.45
516.126	4.45
516.473	4.45
516.819	4.45
517.166	4.46
517.512	4.47
517.859	4.48
518.205	4.49
518.552	4.51
518.898	4.55
519.245	4.58
519.591	4.64
519.937	4.71
520.283	4.79
520.629	4.89
520.976	5
521.322	5.11
521.668	5.23
522.014	5.33
522.36	5.45
522.706	5.56
523.052	5.66
523.398	5.77
523.743	5.85
524.089	5.93
524.435	6
524.781	6.06
525.126	6.12
525.472	6.17
525.817	6.23
526.163	6.28
526.509	6.33
526.854	6.37
527.199	6.42
527.545	6.46
527.89	6.51
528.235	6.56
528.581	6.6
528.926	6.65
529.271	6.69
529.616	6.73
529.961	6.76
530.306	6.78
530.651	6.81
530.996	6.82
531.341	6.84
531.686	6.84
532.031	6.84
532.376	6.84
532.721	6.85
533.065	6.85
533.41	6.85
533.755	6.84
534.099	6.81
534.444	6.78
534.788	6.75
535.133	6.71
535.477	6.67
535.822	6.62
536.166	6.56
536.51	6.5
536.855	6.42
537.199	6.34
537.543	6.27
537.887	6.2
538.231	6.14
538.576	6.08
538.92	6.03
539.264	5.97
539.608	5.92
539.951	5.86
540.295	5.8
540.639	5.74
540.983	5.68
541.327	5.64
541.671	5.58
542.014	5.52
542.358	5.46
542.701	5.43
543.045	5.4
543.389	5.37
543.732	5.35
544.075	5.34
544.419	5.32
544.762	5.3
545.105	5.29
545.449	5.28
545.792	5.28
546.135	5.27
546.478	5.26
546.821	5.24
547.165	5.21
547.508	5.17
547.851	5.13
548.194	5.07
548.536	5.01
548.879	4.95
549.222	4.88
549.565	4.81
549.908	4.75
550.25	4.69
550.593	4.63
550.936	4.59
551.278	4.55
551.621	4.53
551.963	4.51
552.306	4.49
552.648	4.47
552.991	4.45
553.333	4.44
553.675	4.43
554.017	4.44
554.36	4.44
554.702	4.45
555.044	4.46
555.386	4.47
555.728	4.48
556.07	4.49
556.412	4.51
556.754	4.51
557.096	4.51
557.438	4.51
557.78	4.51
558.121	4.51
558.463	4.51
558.805	4.51
559.147	4.51
559.488	4.51
559.83	4.52
560.171	4.52
560.513	4.53
560.854	4.52
561.196	4.51
561.537	4.52
561.878	4.52
562.22	4.52
562.561	4.52
562.902	4.53
563.243	4.54
563.584	4.54
563.925	4.54
564.266	4.54
564.607	4.54
564.948	4.55
565.289	4.55
565.63	4.55
565.971	4.56
566.312	4.56
566.653	4.56
566.993	4.55
567.334	4.55
567.675	4.56
568.015	4.57
568.356	4.58
568.696	4.58
569.037	4.58
569.377	4.58
569.718	4.59
570.058	4.59
570.398	4.59
570.739	4.59
571.079	4.59
571.419	4.59
571.759	4.6
572.099	4.6
572.439	4.6
572.779	4.6
573.119	4.6
573.459	4.6
573.799	4.6
574.139	4.61
574.479	4.61
574.819	4.61
575.158	4.62
575.498	4.62
575.838	4.62
576.177	4.62
576.517	4.62
576.856	4.62
577.196	4.62
577.535	4.61
577.875	4.61
578.214	4.61
578.553	4.62
578.893	4.62
579.232	4.62
579.571	4.62
579.91	4.61
580.25	4.61
580.589	4.61
580.928	4.61
581.267	4.61
581.606	4.61
581.945	4.61
582.283	4.61
582.622	4.61
582.961	4.61
583.3	4.61
583.639	4.61
583.977	4.62
584.316	4.62
584.654	4.63
584.993	4.62
585.332	4.62
585.67	4.62
586.008	4.61
586.347	4.61
586.685	4.62
587.024	4.63
587.362	4.63
587.7	4.64
588.038	4.63
588.376	4.63
588.715	4.63
589.053	4.64
589.391	4.64
589.729	4.64
590.067	4.64
590.404	4.64
590.742	4.64
591.08	4.64
591.418	4.65
591.756	4.65
592.093	4.66
592.431	4.67
592.769	4.67
593.106	4.68
593.444	4.68
593.781	4.68
594.119	4.68
594.456	4.68
594.793	4.68
595.131	4.68
595.468	4.69
595.805	4.68
596.143	4.69
596.48	4.69
596.817	4.69
597.154	4.7
597.491	4.7
597.828	4.71
598.165	4.71
598.502	4.71
598.839	4.71
599.176	4.71
599.512	4.71
599.849	4.72
600.186	4.73
600.523	4.73
600.859	4.73
601.196	4.73
601.532	4.74
601.869	4.74
602.205	4.75
602.542	4.75
602.878	4.75
603.215	4.74
603.551	4.74
603.887	4.74
604.223	4.75
604.56	4.75
604.896	4.76
605.232	4.76
605.568	4.76
605.904	4.76
606.24	4.76
606.576	4.76
606.912	4.77
607.248	4.77
607.583	4.78
607.919	4.78
608.255	4.78
608.591	4.78
608.926	4.78
609.262	4.78
609.597	4.79
609.933	4.79
610.268	4.81
610.604	4.81
610.939	4.82
611.275	4.82
611.61	4.82
611.945	4.82
612.281	4.82
612.616	4.82
612.951	4.8
613.286	4.81
613.621	4.8
613.956	4.8
614.291	4.8
614.626	4.81
614.961	4.82
615.296	4.82
615.631	4.83
615.966	4.82
616.3	4.83
616.635	4.83
616.97	4.83
617.304	4.82
617.639	4.82
617.973	4.82
618.308	4.83
618.642	4.82
618.977	4.81
619.311	4.81
619.646	4.81
619.98	4.82
620.314	4.82
620.648	4.83
620.983	4.84
621.317	4.83
621.651	4.84
621.985	4.84
622.319	4.84
622.653	4.83
622.987	4.83
623.321	4.83
623.655	4.84
623.988	4.85
624.322	4.84
624.656	4.85
624.99	4.85
625.323	4.85
625.657	4.85
625.99	4.86
626.324	4.87
626.657	4.88
626.991	4.88
627.324	4.88
627.658	4.88
627.991	4.88
628.324	4.88
628.657	4.89
628.991	4.9
629.324	4.9
629.657	4.91
629.99	4.91
630.323	4.91
630.656	4.91
630.989	4.92
631.322	4.93
631.655	4.92
631.987	4.92
632.32	4.93
632.653	4.93
632.986	4.94
633.318	4.95
633.651	4.94
633.984	4.95
634.316	4.96
634.649	4.96
634.981	4.97
635.313	4.96
635.646	4.96
635.978	4.96
636.31	4.96
636.643	4.95
636.975	4.95
637.307	4.95
637.639	4.95
637.971	4.95
638.303	4.96
638.635	4.96
638.967	4.97
639.299	4.97
639.631	4.98
639.963	4.99
640.295	5
640.626	5.01
640.958	5.02
641.29	5.01
641.621	5.01
641.953	5.02
642.285	5.03
642.616	5.04
642.948	5.04
643.279	5.05
643.61	5.04
643.942	5.04
644.273	5.04
644.604	5.04
644.936	5.04
645.267	5.05
645.598	5.05
645.929	5.05
646.26	5.05
646.591	5.04
646.922	5.04
647.253	5.04
647.584	5.04
647.915	5.04
648.245	5.05
648.576	5.05
648.907	5.03
649.238	5.04
649.568	5.03
649.899	5.04
650.229	5.05
650.56	5.07
650.89	5.08
651.221	5.08
651.551	5.09
651.882	5.1
652.212	5.09
652.542	5.09
652.872	5.09
653.203	5.11
653.533	5.1
653.863	5.09
654.193	5.09
654.523	5.09
654.853	5.09
655.183	5.09
655.513	5.09
655.843	5.1
656.172	5.11
656.502	5.12
656.832	5.1
657.162	5.11
657.491	5.11
657.821	5.12
658.15	5.11
658.48	5.11
658.809	5.1
659.139	5.11
659.468	5.13
659.798	5.14
660.127	5.15
660.456	5.19
660.785	5.2
661.115	5.21
661.444	5.22
661.773	5.22
662.102	5.24
662.431	5.25
662.76	5.26
663.089	5.25
663.418	5.26
663.747	5.26
664.076	5.27
664.404	5.27
664.733	5.28
665.062	5.29
665.39	5.31
665.719	5.31
666.048	5.3
666.376	5.3
666.705	5.29
667.033	5.29
667.362	5.28
667.69	5.29
668.018	5.29
668.347	5.29
668.675	5.28
669.003	5.28
669.331	5.28
669.659	5.27
669.987	5.29
670.315	5.29
670.643	5.31
670.971	5.32
671.299	5.32
671.627	5.31
671.955	5.31
672.283	5.32
672.61	5.32
672.938	5.34
673.266	5.34
673.593	5.34
673.921	5.34
674.249	5.35
674.576	5.36
674.904	5.38
675.231	5.38
675.558	5.4
675.886	5.41
676.213	5.41
676.54	5.43
676.867	5.43
677.195	5.44
677.522	5.45
677.849	5.47
678.176	5.47
678.503	5.48
678.83	5.47
679.157	5.48
679.484	5.49
679.81	5.48
680.137	5.48
680.464	5.49
680.791	5.49
681.117	5.48
681.444	5.46
681.771	5.47
682.097	5.47
682.424	5.47
682.75	5.45
683.077	5.46
683.403	5.46
683.729	5.46
684.056	5.46
684.382	5.46
684.708	5.46
685.034	5.47
685.36	5.47
685.686	5.48
686.012	5.5
686.339	5.51
686.664	5.51
686.99	5.52
687.316	5.52
687.642	5.54
687.968	5.56
688.294	5.56
688.619	5.56
688.945	5.57
689.271	5.57
689.596	5.58
689.922	5.59
690.247	5.59
690.573	5.6
690.898	5.61
691.224	5.61
691.549	5.61
691.874	5.59
692.2	5.61
692.525	5.62
692.85	5.59
693.175	5.6
693.5	5.62
693.825	5.64
694.15	5.63
694.475	5.64
694.8	5.64
695.125	5.66
695.45	5.69
695.775	5.69
696.099	5.69
696.424	5.7
696.749	5.69
697.073	5.7
697.398	5.69
697.723	5.69
698.047	5.69
698.372	5.71
698.696	5.69
699.02	5.68
699.345	5.68
699.669	5.69
699.993	5.69
700.318	5.67
700.642	5.69
700.966	5.69
701.29	5.67
701.614	5.67
701.938	5.67
702.262	5.68
702.586	5.68
702.91	5.69
703.234	5.69
703.557	5.68
703.881	5.68
704.205	5.71
704.529	5.73
704.852	5.73
705.176	5.76
705.499	5.79
705.823	5.8
706.146	5.82
706.47	5.82
706.793	5.82
707.117	5.93
707.44	5.94
707.763	5.92
708.086	5.92
708.409	5.91
708.733	5.89
709.056	5.89
709.379	5.9
709.702	5.91
710.025	5.93
710.348	5.77
710.671	5.78
710.993	5.78
711.316	5.78
711.639	5.79
711.962	5.79
712.284	5.81
712.607	5.83
712.93	5.83
713.252	5.86
713.575	5.85
713.897	5.83
714.22	5.82
714.542	5.88
714.864	5.94
715.187	5.96
715.509	5.96
715.831	5.96
716.153	5.97
716.475	5.94
716.798	5.94
717.12	6.12
717.442	6.14
717.764	6.12
718.085	6.03
718.407	6.02
718.729	6
719.051	6.03
719.373	6.03
719.695	6.04
720.016	6.03
720.338	5.95
720.659	5.98
720.981	6.01
721.302	6.01
721.624	6.02
721.945	6.02
722.267	6.02
722.588	6.02
722.909	6.04
723.231	6.08
723.552	6.1
723.873	6.11
724.194	6.1
724.515	6.12
724.836	6.23
725.157	6.23
725.478	6.24
725.799	6.25
726.12	6.25
726.441	6.25
726.762	6.28
727.083	6.28
727.403	6.29
727.724	6.26
728.045	6.2
728.365	6.22
728.686	6.28
729.006	6.29
729.327	6.29
729.647	6.28
729.967	6.27
730.288	6.28
730.608	6.28
730.928	6.3
731.249	6.3
731.569	6.31
731.889	6.3
732.209	6.29
732.529	6.29
732.849	6.31
733.169	6.32
733.489	6.32
733.809	6.32
734.129	6.34
734.448	6.36
734.768	6.35
735.088	6.37
735.408	6.37
735.727	6.38
736.047	6.4
736.366	6.4
736.686	6.4
737.005	6.41
737.325	6.39
737.644	6.4
737.963	6.4
738.283	6.4
738.602	6.41
738.921	6.42
739.24	6.4
739.56	6.39
739.879	6.4
740.198	6.41
740.517	6.44
740.836	6.45
741.155	6.45
741.473	6.48
741.792	6.48
742.111	6.5
742.43	6.53
742.748	6.54
743.067	6.54
743.386	6.57
743.704	6.58
744.023	6.62
744.341	6.62
744.66	6.63
744.978	6.58
745.297	6.61
745.615	6.58
745.933	6.57
746.252	6.56
746.57	6.49
746.888	6.51
747.206	6.5
747.524	6.49
747.842	6.52
748.16	6.52
748.478	6.52
748.796	6.51
749.114	6.49
749.432	6.48
749.749	6.51
750.067	6.51
750.385	6.53
750.703	6.52
751.02	6.51
751.338	6.53
751.655	6.59
751.973	6.6
752.29	6.61
752.608	6.65
752.925	6.64
753.242	6.73
753.56	6.73
753.877	6.7
754.194	6.76
754.511	6.74
754.828	6.72
755.145	6.74
755.462	6.73
755.779	6.74
756.096	6.78
756.413	6.78
756.73	6.74
757.047	6.74
757.364	6.75
757.68	6.81
757.997	6.82
758.314	6.83
758.63	6.85
758.947	6.9
759.264	6.9
759.58	6.92
759.896	6.91
760.213	6.94
760.529	6.94
760.846	6.91
761.162	6.92
761.478	6.91
761.794	6.89
762.11	6.91
762.426	6.93
762.743	6.92
763.059	6.98
763.375	7.01
763.69	7.03
764.006	7.05
764.322	7.06
764.638	7.06
764.954	7.09
765.27	7.13
765.585	7.11
765.901	7.14
766.216	6.97
766.532	6.97
766.848	6.96
767.163	6.98
767.478	7.04
767.794	7.07
768.109	7.08
768.424	7.09
768.74	7.1
769.055	7.09
769.37	7.13
769.685	7.12
770	7.13
770.315	7.15
770.63	7.04
770.945	6.98
771.26	6.96
771.575	6.94
771.89	6.9
772.205	6.94
772.52	6.92
772.834	7.1
773.149	7.14
773.464	7.09
773.778	7.08
774.093	7.11
774.407	7.14
774.722	7.17
775.036	7.14
775.351	7.13
775.665	7.11
775.979	6.98
776.293	6.97
776.608	6.95
776.922	6.92
777.236	7.03
777.55	7.12
777.864	7.13
778.178	7.15
778.492	7.12
778.806	7.06
779.12	7.1
779.434	7.09
779.747	7.02
780.061	7.17
780.375	7.1
780.689	7.03
781.002	7.01
781.316	7.03
781.629	7.06
781.943	7.12
782.256	7.13
782.57	7.24
782.883	7.21
783.196	7.16
783.51	7.21
783.823	7.26
784.136	7.24
784.449	7.3
784.762	7.31
785.075	7.39
785.388	7.35
785.701	7.32
786.014	7.29
786.327	7.33
786.64	7.32
786.953	7.3
787.266	7.42
787.578	7.39
787.891	7.42
788.204	7.38
788.516	7.42
788.829	7.47
789.141	7.43
789.454	7.47
789.766	7.51
790.079	7.51
790.391	7.49
790.703	7.57
791.016	7.46
791.328	7.49
791.64	7.53
791.952	7.61
792.264	7.66
792.576	7.74
792.888	7.74
793.2	7.76
793.512	7.77
793.824	7.72
794.136	7.73
794.448	7.78
794.76	7.83
795.071	7.86
795.383	7.8
795.695	7.96
796.006	8.08
796.318	8.1
796.629	8.11
796.941	8.09
797.252	8.05
797.564	8.12
797.875	8.03
798.186	7.99
798.497	7.99
798.809	7.88
799.12	7.84
799.431	7.79
799.742	7.82
800.053	7.69
800.364	7.82
800.675	7.86
800.986	7.86
801.297	7.94
801.608	7.93
801.918	7.98
802.229	7.96
802.54	7.95
802.851	7.95
803.161	7.93
803.472	7.93
803.782	7.9
804.093	7.97
804.403	7.87
804.714	7.94
805.024	7.95
805.334	8.1
805.645	8.09
805.955	8.18
806.265	8.17
806.575	8.23
806.885	8.13
807.195	8.11
807.505	8.06
807.815	8
808.125	8.06
808.435	8.02
808.745	7.95
809.055	7.94
809.365	8.05
809.674	8.11
809.984	8.2
810.294	8.24
810.603	8.26
810.913	8.5
811.222	8.42
811.532	8.49
811.841	8.63
812.151	8.74
812.46	8.75
812.769	8.82
813.079	8.85
813.388	8.84
813.697	8.85
814.006	8.78
814.315	8.83
814.624	8.85
814.933	8.82
815.242	8.76
815.551	8.8
815.86	8.76
816.169	8.78
816.478	8.79
816.786	8.78
817.095	8.85
817.404	8.86
817.712	8.88
818.021	8.81
818.33	8.81
818.638	8.83
818.947	8.87
819.255	8.88
819.563	8.92
819.872	8.94
820.18	8.98
820.488	9
820.796	8.98
821.105	8.98
821.413	9.01
821.721	9.06
822.029	9.08
822.337	9.1
822.645	9.08
822.953	9.08
823.26	9.09
823.568	9.1
823.876	9.1
824.184	9.1
824.491	9.07
824.799	9.06
825.107	9.07
825.414	9.07
825.722	9.06
826.029	9.05
826.337	9.07
826.644	9.06
826.951	9.08
827.259	9.1
827.566	9.16
827.873	9.19
828.18	9.17
828.488	9.17
828.795	9.18
829.102	9.19
829.409	9.22
829.716	9.21
830.023	9.23
830.329	9.24
830.636	9.28
830.943	9.35
831.25	9.38
831.557	9.33
831.863	9.35
832.17	9.36
832.476	9.39
832.783	9.37
833.089	9.4
833.396	9.37
833.702	9.34
834.009	9.27
834.315	9.26
834.621	9.31
834.928	9.33
835.234	9.35
835.54	9.36
835.846	9.43
836.152	9.44
836.458	9.47
836.764	9.43
837.07	9.48
837.376	9.39
837.682	9.31
837.988	9.45
838.293	9.37
838.599	9.44
838.905	9.38
839.211	9.46
839.516	9.51
839.822	9.61
840.127	9.54
840.433	9.57
840.738	9.55
841.044	9.56
841.349	9.63
841.654	9.68
841.959	9.69
842.265	9.69
842.57	9.66
842.875	9.69
843.18	9.79
843.485	9.9
843.79	10.02
844.095	10.29
844.4	10.21
844.705	10.44
845.01	10.45
845.315	10.49
845.619	10.38
845.924	10.26
846.229	10.16
846.533	10.24
846.838	10.35
847.142	10.27
847.447	10.22
847.751	10.02
848.056	9.98
848.36	9.87
848.664	9.79
848.969	9.7
849.273	9.64
849.577	9.32
849.881	9.24
850.185	9.24
850.489	9.43
850.794	9.68
851.097	9.6
851.401	9.62
851.705	9.66
852.009	9.67
852.313	9.43
852.617	9.54
852.92	9.47
853.224	9.45
853.528	9.31
853.831	9.26
854.135	9.11
854.438	9.14
854.742	9.24
855.045	9.38
855.349	9.58
855.652	9.82
855.955	9.7
856.259	9.82
856.562	9.89
856.865	9.73
857.168	9.64
857.471	9.6
857.774	9.53
858.077	9.32
858.38	9.44
858.683	9.48
858.986	9.41
859.289	9.48
859.592	9.47
859.894	9.84
860.197	9.98
860.5	10.01
860.802	10.17
861.105	10.19
861.407	10.44
861.71	10.48
862.012	10.69
862.315	10.91
862.617	10.86
862.919	10.37
863.222	10.41
863.524	10.41
863.826	10.78
864.128	10.96
864.43	10.92
864.732	11.01
865.034	11.25
865.336	11.37
865.638	11.27
865.94	11.19
866.242	11.02
866.544	10.65
866.846	11.01
867.147	10.53
867.449	10.35
867.751	10.29
868.052	10.09
868.354	10.01
868.655	10.08
868.957	10.28
869.258	10.39
869.56	10.35
869.861	10.58
870.162	10.38
870.463	10.32
870.765	10.27
871.066	10.35
871.367	10.28
871.668	10.45
871.969	10.47
872.27	10.47
872.571	10.49
872.872	10.88
873.173	10.68
873.473	10.96
873.774	10.98
874.075	10.97
874.376	11.15
874.676	11.03
874.977	10.91
875.277	10.78
875.578	10.62
875.878	10.37
876.179	10.4
876.479	10.29
876.78	10.43
877.08	10.48
877.38	10.39
877.68	10.41
877.981	10.38
878.281	10.48
878.581	10.65
