Data from UWBM59058_Reflection_00012.txt Node
Date: Sun May 02 13:02:32 EDT 2021
User: vgr7
Spectrometer: USB2G7710
Scans to average: 10
Trigger mode: 4
Integration Time (sec): 1.000000E-1
Electric dark correction enabled: true
Boxcar width: 20
XAxis mode: Wavelengths
Number of Pixels in Spectrum: 2048
>>>>>Begin Spectral Data<<<<<
177.721	98.81
178.105	99.36
178.488	100.19
178.871	102.29
179.254	101.65
179.636	99.84
180.019	99.35
180.402	95.8
180.785	95.07
181.168	92.73
181.55	90.78
181.933	108.22
182.316	109.4
182.698	110.36
183.081	111.97
183.463	113.18
183.846	113.06
184.228	116.31
184.611	119.34
184.993	122.79
185.376	126.07
185.758	-26.68
186.14	-1.69
186.522	14.8
186.904	22.77
187.287	28.35
187.669	33.96
188.051	33.32
188.433	36.41
188.815	34.91
189.197	32.21
189.579	30.46
189.961	30.69
190.342	30.34
190.724	31.86
191.106	30.78
191.488	33.37
191.869	29.82
192.251	30.76
192.633	30.8
193.014	28.8
193.396	28.55
193.777	31.04
194.159	30.13
194.54	25.62
194.922	24.64
195.303	26.59
195.684	26.82
196.065	27.03
196.447	25.33
196.828	25.31
197.209	26.69
197.59	18.13
197.971	18.04
198.352	17.68
198.733	19.99
199.114	19.31
199.495	17.06
199.876	18.82
200.257	19.5
200.638	18.84
201.018	14.24
201.399	14.32
201.78	12.72
202.16	12.97
202.541	14.57
202.922	15.78
203.302	12.63
203.683	11.85
204.063	11.05
204.444	11.59
204.824	15.03
205.204	17.78
205.585	24.91
205.965	22.92
206.345	22.75
206.725	18.41
207.106	17.99
207.486	18.59
207.866	18.83
208.246	17.6
208.626	20.44
209.006	24.67
209.386	22.2
209.766	22.43
210.145	23.03
210.525	22.54
210.905	23.86
211.285	23.89
211.664	23.36
212.044	24.51
212.424	23.94
212.803	19.33
213.183	21.63
213.562	21.9
213.942	21.47
214.321	17.7
214.701	17.41
215.08	19.12
215.459	19.99
215.838	18.86
216.218	19.3
216.597	18.54
216.976	15.29
217.355	15.68
217.734	15.36
218.113	14.6
218.492	15.02
218.871	16.39
219.25	17.34
219.629	16.72
220.008	16.69
220.387	15.45
220.766	15.2
221.144	13.62
221.523	15.5
221.902	16.15
222.28	16.45
222.659	16.43
223.037	15.92
223.416	15.77
223.794	16.53
224.173	15.45
224.551	14.32
224.929	13.94
225.308	14.55
225.686	13.85
226.064	14.28
226.442	13.93
226.821	13.33
227.199	12.91
227.577	11.85
227.955	11.22
228.333	10.86
228.711	10.24
229.089	10.45
229.467	9.61
229.845	10.58
230.222	10.55
230.6	10.64
230.978	10.22
231.356	9.58
231.733	9.31
232.111	9.18
232.488	8.89
232.866	8.77
233.243	8.57
233.621	8.58
233.998	7.97
234.376	7.7
234.753	7.56
235.13	7.47
235.508	7.8
235.885	7.71
236.262	7.59
236.639	7.65
237.016	7.43
237.393	7.32
237.77	7.06
238.147	6.9
238.524	6.81
238.901	6.72
239.278	6.61
239.655	6.55
240.032	6.45
240.409	6.5
240.785	6.37
241.162	6.4
241.539	6.3
241.915	6.28
242.292	6.26
242.668	6.24
243.045	6.2
243.421	6.09
243.798	6.07
244.174	6.06
244.551	5.97
244.927	5.82
245.303	5.75
245.679	5.74
246.056	5.7
246.432	5.68
246.808	5.45
247.184	5.43
247.56	5.38
247.936	5.4
248.312	5.41
248.688	5.46
249.064	5.4
249.44	5.4
249.815	5.42
250.191	5.37
250.567	5.34
250.943	5.42
251.318	5.43
251.694	5.38
252.069	5.3
252.445	5.31
252.82	5.38
253.196	5.4
253.571	5.38
253.947	5.47
254.322	5.43
254.697	5.55
255.073	5.55
255.448	5.55
255.823	5.5
256.198	5.45
256.573	5.29
256.948	5.27
257.323	5.27
257.698	5.2
258.073	5.18
258.448	5.07
258.823	5.06
259.198	5.05
259.573	5.05
259.948	5.08
260.322	5.07
260.697	5.06
261.072	5.07
261.446	5.04
261.821	5.02
262.195	4.99
262.57	4.94
262.944	4.95
263.319	4.94
263.693	4.95
264.067	4.97
264.442	5.07
264.816	5.04
265.19	5
265.564	5.03
265.938	5
266.313	5.03
266.687	5
267.061	5
267.435	4.99
267.809	4.97
268.183	4.95
268.556	4.97
268.93	4.96
269.304	4.95
269.678	4.91
270.051	4.88
270.425	4.88
270.799	4.88
271.172	4.9
271.546	4.91
271.919	4.93
272.293	4.9
272.666	4.91
273.04	4.92
273.413	4.86
273.787	4.85
274.16	4.87
274.533	4.9
274.906	4.9
275.279	4.93
275.653	4.91
276.026	4.89
276.399	4.84
276.772	4.83
277.145	4.86
277.518	4.88
277.891	4.92
278.263	4.94
278.636	4.95
279.009	4.95
279.382	4.91
279.755	4.86
280.127	4.88
280.5	4.88
280.872	4.89
281.245	5
281.617	5.03
281.99	5.04
282.362	5.07
282.735	5.06
283.107	5.06
283.479	5.07
283.852	5.09
284.224	5.1
284.596	5.08
284.968	4.98
285.34	4.97
285.713	4.96
286.085	4.89
286.457	4.89
286.829	4.89
287.201	4.89
287.572	4.96
287.944	4.98
288.316	5.03
288.688	5.09
289.06	5.1
289.431	5.11
289.803	5.1
290.175	5.12
290.546	5.13
290.918	5.16
291.289	5.16
291.661	5.21
292.032	5.19
292.403	5.21
292.775	5.31
293.146	5.33
293.517	5.36
293.889	5.45
294.26	5.46
294.631	5.51
295.002	5.57
295.373	5.62
295.744	5.65
296.115	5.65
296.486	5.61
296.857	5.62
297.228	5.65
297.599	5.66
297.97	5.67
298.34	5.71
298.711	5.68
299.082	5.69
299.452	5.76
299.823	5.81
300.194	5.85
300.564	5.89
300.935	5.91
301.305	5.92
301.676	5.93
302.046	5.96
302.416	5.99
302.787	6.02
303.157	5.97
303.527	6
303.897	6.03
304.267	6.07
304.637	6.12
305.008	6.18
305.378	6.22
305.748	6.25
306.117	6.35
306.487	6.44
306.857	6.51
307.227	6.54
307.597	6.57
307.967	6.61
308.336	6.64
308.706	6.68
309.076	6.71
309.445	6.74
309.815	6.66
310.184	6.69
310.554	6.68
310.923	6.73
311.293	6.78
311.662	6.83
312.031	6.84
312.401	6.87
312.77	6.87
313.139	6.9
313.508	6.97
313.877	6.96
314.246	6.98
314.616	6.99
314.985	6.97
315.353	7.02
315.722	7.05
316.091	7.11
316.46	7.15
316.829	7.21
317.198	7.27
317.567	7.44
317.935	7.48
318.304	7.58
318.672	7.65
319.041	7.7
319.41	7.77
319.778	7.84
320.147	7.92
320.515	7.96
320.883	8
321.252	7.99
321.62	8.06
321.988	8.11
322.357	8.17
322.725	8.26
323.093	8.31
323.461	8.36
323.829	8.4
324.197	8.44
324.565	8.48
324.933	8.52
325.301	8.54
325.669	8.58
326.037	8.61
326.405	8.61
326.772	8.64
327.14	8.68
327.508	8.71
327.875	8.75
328.243	8.79
328.61	8.77
328.978	8.82
329.346	8.85
329.713	8.85
330.08	8.89
330.448	8.91
330.815	8.9
331.182	8.95
331.55	8.98
331.917	9.03
332.284	9.05
332.651	9.09
333.018	9.11
333.385	9.14
333.752	9.19
334.119	9.22
334.486	9.24
334.853	9.25
335.22	9.27
335.587	9.28
335.954	9.31
336.32	9.35
336.687	9.37
337.054	9.39
337.42	9.43
337.787	9.46
338.153	9.48
338.52	9.52
338.886	9.56
339.253	9.57
339.619	9.58
339.986	9.57
340.352	9.59
340.718	9.62
341.084	9.63
341.451	9.64
341.817	9.63
342.183	9.63
342.549	9.65
342.915	9.66
343.281	9.7
343.647	9.72
344.013	9.76
344.379	9.78
344.745	9.8
345.11	9.82
345.476	9.85
345.842	9.86
346.208	9.84
346.573	9.83
346.939	9.84
347.304	9.85
347.67	9.85
348.035	9.88
348.401	9.87
348.766	9.89
349.132	9.89
349.497	9.91
349.862	9.9
350.228	9.91
350.593	9.92
350.958	9.9
351.323	9.89
351.688	9.89
352.053	9.86
352.418	9.85
352.783	9.83
353.148	9.82
353.513	9.8
353.878	9.8
354.243	9.78
354.608	9.76
354.972	9.75
355.337	9.73
355.702	9.7
356.066	9.68
356.431	9.66
356.795	9.65
357.16	9.62
357.524	9.6
357.889	9.59
358.253	9.57
358.618	9.56
358.982	9.54
359.346	9.52
359.71	9.49
360.075	9.47
360.439	9.45
360.803	9.42
361.167	9.39
361.531	9.38
361.895	9.35
362.259	9.32
362.623	9.29
362.987	9.25
363.351	9.24
363.714	9.2
364.078	9.18
364.442	9.14
364.806	9.12
365.169	9.08
365.533	9.04
365.896	9
366.26	8.97
366.623	8.92
366.987	8.89
367.35	8.86
367.714	8.83
368.077	8.78
368.44	8.75
368.803	8.71
369.167	8.66
369.53	8.62
369.893	8.57
370.256	8.53
370.619	8.49
370.982	8.44
371.345	8.39
371.708	8.34
372.071	8.28
372.434	8.23
372.797	8.19
373.159	8.15
373.522	8.1
373.885	8.05
374.247	7.99
374.61	7.94
374.973	7.88
375.335	7.82
375.698	7.77
376.06	7.72
376.423	7.67
376.785	7.63
377.147	7.58
377.51	7.54
377.872	7.49
378.234	7.44
378.596	7.41
378.958	7.38
379.321	7.34
379.683	7.3
380.045	7.25
380.407	7.21
380.769	7.16
381.13	7.13
381.492	7.11
381.854	7.07
382.216	7.02
382.578	6.98
382.939	6.96
383.301	6.92
383.663	6.88
384.024	6.85
384.386	6.82
384.747	6.78
385.109	6.74
385.47	6.71
385.832	6.68
386.193	6.64
386.554	6.61
386.916	6.58
387.277	6.55
387.638	6.53
387.999	6.5
388.36	6.48
388.721	6.45
389.082	6.42
389.443	6.39
389.804	6.38
390.165	6.36
390.526	6.33
390.887	6.31
391.248	6.28
391.609	6.26
391.969	6.23
392.33	6.21
392.691	6.19
393.051	6.16
393.412	6.13
393.772	6.11
394.133	6.08
394.493	6.05
394.854	6.03
395.214	6
395.574	5.98
395.935	5.95
396.295	5.91
396.655	5.89
397.015	5.87
397.376	5.84
397.736	5.83
398.096	5.8
398.456	5.78
398.816	5.77
399.176	5.73
399.535	5.71
399.895	5.69
400.255	5.67
400.615	5.65
400.975	5.63
401.334	5.61
401.694	5.59
402.054	5.57
402.413	5.53
402.773	5.51
403.132	5.51
403.492	5.48
403.851	5.47
404.211	5.46
404.57	5.45
404.929	5.44
405.288	5.43
405.648	5.42
406.007	5.41
406.366	5.41
406.725	5.4
407.084	5.39
407.443	5.38
407.802	5.36
408.161	5.35
408.52	5.34
408.879	5.33
409.238	5.32
409.596	5.32
409.955	5.32
410.314	5.31
410.673	5.3
411.031	5.3
411.39	5.3
411.748	5.3
412.107	5.3
412.465	5.3
412.824	5.32
413.182	5.33
413.54	5.35
413.899	5.38
414.257	5.41
414.615	5.45
414.974	5.48
415.332	5.52
415.69	5.56
416.048	5.59
416.406	5.63
416.764	5.66
417.122	5.69
417.48	5.73
417.838	5.75
418.195	5.78
418.553	5.8
418.911	5.81
419.269	5.8
419.626	5.79
419.984	5.78
420.342	5.75
420.699	5.72
421.057	5.69
421.414	5.67
421.772	5.65
422.129	5.63
422.486	5.62
422.844	5.61
423.201	5.61
423.558	5.6
423.915	5.59
424.273	5.58
424.63	5.58
424.987	5.57
425.344	5.56
425.701	5.56
426.058	5.55
426.415	5.54
426.772	5.53
427.128	5.52
427.485	5.5
427.842	5.49
428.199	5.47
428.555	5.44
428.912	5.41
429.269	5.37
429.625	5.35
429.982	5.31
430.338	5.28
430.695	5.25
431.051	5.21
431.407	5.18
431.764	5.16
432.12	5.13
432.476	5.11
432.832	5.1
433.189	5.1
433.545	5.1
433.901	5.12
434.257	5.14
434.613	5.17
434.969	5.2
435.325	5.23
435.681	5.28
436.036	5.3
436.392	5.33
436.748	5.34
437.104	5.34
437.459	5.36
437.815	5.38
438.171	5.41
438.526	5.44
438.882	5.47
439.237	5.51
439.593	5.55
439.948	5.59
440.304	5.63
440.659	5.66
441.014	5.68
441.369	5.71
441.725	5.73
442.08	5.75
442.435	5.76
442.79	5.77
443.145	5.77
443.5	5.77
443.855	5.77
444.21	5.76
444.565	5.76
444.92	5.74
445.275	5.72
445.629	5.71
445.984	5.69
446.339	5.68
446.693	5.67
447.048	5.65
447.403	5.63
447.757	5.6
448.112	5.57
448.466	5.54
448.82	5.52
449.175	5.49
449.529	5.47
449.883	5.45
450.238	5.42
450.592	5.41
450.946	5.4
451.3	5.4
451.654	5.41
452.008	5.4
452.362	5.41
452.716	5.41
453.07	5.41
453.424	5.4
453.778	5.39
454.132	5.38
454.486	5.36
454.839	5.34
455.193	5.32
455.547	5.3
455.9	5.26
456.254	5.24
456.607	5.2
456.961	5.17
457.314	5.15
457.668	5.14
458.021	5.13
458.375	5.12
458.728	5.13
459.081	5.13
459.434	5.15
459.787	5.16
460.141	5.17
460.494	5.18
460.847	5.19
461.2	5.19
461.553	5.21
461.906	5.22
462.259	5.23
462.611	5.23
462.964	5.24
463.317	5.25
463.67	5.26
464.022	5.26
464.375	5.27
464.728	5.27
465.08	5.28
465.433	5.28
465.785	5.28
466.138	5.27
466.49	5.26
466.843	5.24
467.195	5.22
467.547	5.2
467.899	5.17
468.252	5.14
468.604	5.11
468.956	5.09
469.308	5.08
469.66	5.08
470.012	5.07
470.364	5.08
470.716	5.09
471.068	5.12
471.42	5.15
471.772	5.17
472.123	5.18
472.475	5.2
472.827	5.21
473.178	5.23
473.53	5.24
473.882	5.26
474.233	5.28
474.585	5.33
474.936	5.41
475.288	5.51
475.639	5.65
475.99	5.82
476.342	6
476.693	6.2
477.044	6.39
477.395	6.6
477.746	6.8
478.097	7.01
478.448	7.23
478.8	7.43
479.15	7.62
479.501	7.79
479.852	7.96
480.203	8.1
480.554	8.24
480.905	8.38
481.255	8.51
481.606	8.64
481.957	8.75
482.307	8.86
482.658	8.97
483.009	9.07
483.359	9.17
483.709	9.27
484.06	9.35
484.41	9.45
484.761	9.53
485.111	9.61
485.461	9.69
485.811	9.76
486.162	9.83
486.512	9.89
486.862	9.93
487.212	9.96
487.562	9.98
487.912	10
488.262	10
488.612	10
488.961	9.97
489.311	9.93
489.661	9.85
490.011	9.74
490.36	9.61
490.71	9.46
491.06	9.3
491.409	9.13
491.759	8.96
492.108	8.78
492.458	8.6
492.807	8.4
493.157	8.21
493.506	8.02
493.855	7.85
494.204	7.69
494.554	7.53
494.903	7.39
495.252	7.27
495.601	7.14
495.95	7.01
496.299	6.91
496.648	6.81
496.997	6.71
497.346	6.62
497.695	6.54
498.043	6.47
498.392	6.4
498.741	6.33
499.09	6.27
499.438	6.21
499.787	6.16
500.135	6.12
500.484	6.09
500.832	6.08
501.181	6.08
501.529	6.1
501.878	6.13
502.226	6.18
502.574	6.24
502.923	6.29
503.271	6.36
503.619	6.43
503.967	6.5
504.315	6.57
504.663	6.65
505.011	6.72
505.359	6.8
505.707	6.89
506.055	6.98
506.403	7.07
506.751	7.17
507.098	7.28
507.446	7.39
507.794	7.51
508.141	7.65
508.489	7.79
508.837	7.94
509.184	8.1
509.531	8.25
509.879	8.42
510.226	8.6
510.574	8.79
510.921	8.99
511.268	9.19
511.616	9.41
511.963	9.63
512.31	9.86
512.657	10.08
513.004	10.31
513.351	10.53
513.698	10.74
514.045	10.95
514.392	11.15
514.739	11.34
515.086	11.53
515.432	11.72
515.779	11.91
516.126	12.12
516.473	12.34
516.819	12.58
517.166	12.84
517.512	13.12
517.859	13.42
518.205	13.74
518.552	14.09
518.898	14.47
519.245	14.9
519.591	15.41
519.937	16
520.283	16.67
520.629	17.41
520.976	18.17
521.322	18.96
521.668	19.77
522.014	20.58
522.36	21.38
522.706	22.17
523.052	22.95
523.398	23.68
523.743	24.37
524.089	24.99
524.435	25.58
524.781	26.17
525.126	26.75
525.472	27.32
525.817	27.88
526.163	28.43
526.509	28.96
526.854	29.5
527.199	30.03
527.545	30.56
527.89	31.1
528.235	31.64
528.581	32.15
528.926	32.63
529.271	33.09
529.616	33.53
529.961	33.94
530.306	34.3
530.651	34.66
530.996	34.98
531.341	35.29
531.686	35.57
532.031	35.83
532.376	36.13
532.721	36.45
533.065	36.8
533.41	37.16
533.755	37.47
534.099	37.73
534.444	37.96
534.788	38.16
535.133	38.34
535.477	38.49
535.822	38.6
536.166	38.67
536.51	38.67
536.855	38.61
537.199	38.52
537.543	38.42
537.887	38.37
538.231	38.35
538.576	38.34
538.92	38.3
539.264	38.24
539.608	38.17
539.951	38.08
540.295	37.97
540.639	37.85
540.983	37.71
541.327	37.56
541.671	37.4
542.014	37.26
542.358	37.14
542.701	37.13
543.045	37.15
543.389	37.22
543.732	37.3
544.075	37.41
544.419	37.52
544.762	37.64
545.105	37.79
545.449	37.94
545.792	38.11
546.135	38.28
546.478	38.39
546.821	38.45
547.165	38.44
547.508	38.36
547.851	38.24
548.194	38.06
548.536	37.85
548.879	37.59
549.222	37.3
549.565	37.01
549.908	36.73
550.25	36.47
550.593	36.28
550.936	36.17
551.278	36.11
551.621	36.1
551.963	36.11
552.306	36.14
552.648	36.2
552.991	36.29
553.333	36.4
553.675	36.56
554.017	36.74
554.36	36.95
554.702	37.19
555.044	37.48
555.386	37.8
555.728	38.14
556.07	38.43
556.412	38.74
556.754	38.92
557.096	39.1
557.438	39.28
557.78	39.46
558.121	39.63
558.463	39.81
558.805	39.99
559.147	40.17
559.488	40.34
559.83	40.51
560.171	40.68
560.513	40.84
560.854	41
561.196	41.16
561.537	41.32
561.878	41.47
562.22	41.63
562.561	41.77
562.902	41.93
563.243	42.09
563.584	42.24
563.925	42.4
564.266	42.56
564.607	42.7
564.948	42.84
565.289	42.98
565.63	43.13
565.971	43.27
566.312	43.41
566.653	43.54
566.993	43.67
567.334	43.79
567.675	43.92
568.015	44.06
568.356	44.18
568.696	44.29
569.037	44.4
569.377	44.51
569.718	44.62
570.058	44.72
570.398	44.82
570.739	44.91
571.079	45
571.419	45.1
571.759	45.17
572.099	45.25
572.439	45.33
572.779	45.41
573.119	45.48
573.459	45.55
573.799	45.63
574.139	45.71
574.479	45.78
574.819	45.86
575.158	45.93
575.498	45.99
575.838	46.06
576.177	46.12
576.517	46.19
576.856	46.25
577.196	46.31
577.535	46.37
577.875	46.43
578.214	46.48
578.553	46.53
578.893	46.59
579.232	46.64
579.571	46.7
579.91	46.75
580.25	46.8
580.589	46.87
580.928	46.93
581.267	46.99
581.606	47.03
581.945	47.08
582.283	47.15
582.622	47.22
582.961	47.29
583.3	47.36
583.639	47.42
583.977	47.48
584.316	47.55
584.654	47.62
584.993	47.68
585.332	47.74
585.67	47.82
586.008	47.89
586.347	47.97
586.685	48.04
587.024	48.12
587.362	48.2
587.7	48.28
588.038	48.36
588.376	48.44
588.715	48.51
589.053	48.59
589.391	48.67
589.729	48.75
590.067	48.83
590.404	48.91
590.742	48.99
591.08	49.06
591.418	49.1
591.756	49.17
592.093	49.25
592.431	49.32
592.769	49.38
593.106	49.45
593.444	49.5
593.781	49.55
594.119	49.61
594.456	49.65
594.793	49.7
595.131	49.75
595.468	49.81
595.805	49.87
596.143	49.92
596.48	49.99
596.817	50.05
597.154	50.13
597.491	50.19
597.828	50.26
598.165	50.31
598.502	50.38
598.839	50.44
599.176	50.49
599.512	50.55
599.849	50.59
600.186	50.65
600.523	50.69
600.859	50.73
601.196	50.76
601.532	50.81
601.869	50.85
602.205	50.9
602.542	50.95
602.878	50.98
603.215	51.01
603.551	51.05
603.887	51.09
604.223	51.13
604.56	51.16
604.896	51.19
605.232	51.22
605.568	51.26
605.904	51.28
606.24	51.31
606.576	51.34
606.912	51.36
607.248	51.39
607.583	51.43
607.919	51.46
608.255	51.49
608.591	51.52
608.926	51.55
609.262	51.58
609.597	51.61
609.933	51.62
610.268	51.65
610.604	51.66
610.939	51.66
611.275	51.68
611.61	51.7
611.945	51.71
612.281	51.72
612.616	51.73
612.951	51.75
613.286	51.77
613.621	51.78
613.956	51.79
614.291	51.81
614.626	51.83
614.961	51.85
615.296	51.87
615.631	51.88
615.966	51.88
616.3	51.9
616.635	51.91
616.97	51.93
617.304	51.95
617.639	51.96
617.973	51.98
618.308	52.02
618.642	52.05
618.977	52.08
619.311	52.11
619.646	52.15
619.98	52.2
620.314	52.23
620.648	52.26
620.983	52.29
621.317	52.32
621.651	52.34
621.985	52.37
622.319	52.39
622.653	52.42
622.987	52.43
623.321	52.46
623.655	52.48
623.988	52.51
624.322	52.54
624.656	52.57
624.99	52.59
625.323	52.61
625.657	52.63
625.99	52.67
626.324	52.69
626.657	52.71
626.991	52.73
627.324	52.75
627.658	52.78
627.991	52.81
628.324	52.84
628.657	52.87
628.991	52.89
629.324	52.91
629.657	52.94
629.99	52.95
630.323	52.98
630.656	52.99
630.989	53.01
631.322	53.04
631.655	53.05
631.987	53.04
632.32	53.06
632.653	53.07
632.986	53.08
633.318	53.1
633.651	53.11
633.984	53.11
634.316	53.12
634.649	53.14
634.981	53.17
635.313	53.19
635.646	53.2
635.978	53.22
636.31	53.24
636.643	53.26
636.975	53.27
637.307	53.29
637.639	53.29
637.971	53.33
638.303	53.37
638.635	53.39
638.967	53.41
639.299	53.43
639.631	53.44
639.963	53.46
640.295	53.48
640.626	53.5
640.958	53.51
641.29	53.51
641.621	53.51
641.953	53.54
642.285	53.56
642.616	53.58
642.948	53.61
643.279	53.64
643.61	53.65
643.942	53.68
644.273	53.72
644.604	53.72
644.936	53.74
645.267	53.76
645.598	53.8
645.929	53.82
646.26	53.87
646.591	53.89
646.922	53.91
647.253	53.92
647.584	53.95
647.915	54
648.245	54.03
648.576	54.05
648.907	54.06
649.238	54.08
649.568	54.09
649.899	54.1
650.229	54.14
650.56	54.18
650.89	54.19
651.221	54.21
651.551	54.23
651.882	54.24
652.212	54.25
652.542	54.28
652.872	54.28
653.203	54.3
653.533	54.31
653.863	54.33
654.193	54.36
654.523	54.38
654.853	54.4
655.183	54.42
655.513	54.42
655.843	54.44
656.172	54.45
656.502	54.46
656.832	54.48
657.162	54.49
657.491	54.51
657.821	54.51
658.15	54.54
658.48	54.55
658.809	54.56
659.139	54.58
659.468	54.61
659.798	54.61
660.127	54.63
660.456	54.67
660.785	54.69
661.115	54.7
661.444	54.7
661.773	54.71
662.102	54.72
662.431	54.72
662.76	54.74
663.089	54.76
663.418	54.77
663.747	54.78
664.076	54.78
664.404	54.8
664.733	54.82
665.062	54.83
665.39	54.83
665.719	54.85
666.048	54.86
666.376	54.88
666.705	54.9
667.033	54.91
667.362	54.92
667.69	54.92
668.018	54.93
668.347	54.96
668.675	54.97
669.003	54.99
669.331	55.01
669.659	55.01
669.987	55.04
670.315	55.03
670.643	55.06
670.971	55.07
671.299	55.09
671.627	55.09
671.955	55.12
672.283	55.13
672.61	55.16
672.938	55.16
673.266	55.18
673.593	55.19
673.921	55.21
674.249	55.24
674.576	55.26
674.904	55.3
675.231	55.32
675.558	55.34
675.886	55.38
676.213	55.39
676.54	55.4
676.867	55.39
677.195	55.41
677.522	55.43
677.849	55.46
678.176	55.48
678.503	55.49
678.83	55.51
679.157	55.52
679.484	55.52
679.81	55.53
680.137	55.56
680.464	55.58
680.791	55.59
681.117	55.61
681.444	55.62
681.771	55.63
682.097	55.64
682.424	55.65
682.75	55.64
683.077	55.67
683.403	55.67
683.729	55.69
684.056	55.71
684.382	55.71
684.708	55.69
685.034	55.7
685.36	55.71
685.686	55.72
686.012	55.73
686.339	55.76
686.664	55.77
686.99	55.78
687.316	55.77
687.642	55.78
687.968	55.82
688.294	55.81
688.619	55.83
688.945	55.85
689.271	55.86
689.596	55.87
689.922	55.91
690.247	55.94
690.573	55.95
690.898	55.98
691.224	56
691.549	56.02
691.874	56.04
692.2	56.07
692.525	56.11
692.85	56.1
693.175	56.11
693.5	56.11
693.825	56.13
694.15	56.13
694.475	56.15
694.8	56.16
695.125	56.17
695.45	56.2
695.775	56.22
696.099	56.24
696.424	56.25
696.749	56.28
697.073	56.31
697.398	56.31
697.723	56.31
698.047	56.34
698.372	56.37
698.696	56.37
699.02	56.37
699.345	56.37
699.669	56.38
699.993	56.39
700.318	56.38
700.642	56.39
700.966	56.4
701.29	56.4
701.614	56.42
701.938	56.43
702.262	56.46
702.586	56.48
702.91	56.5
703.234	56.49
703.557	56.48
703.881	56.5
704.205	56.52
704.529	56.52
704.852	56.52
705.176	56.53
705.499	56.54
705.823	56.53
706.146	56.56
706.47	56.59
706.793	56.6
707.117	56.66
707.44	56.68
707.763	56.69
708.086	56.7
708.409	56.74
708.733	56.74
709.056	56.76
709.379	56.79
709.702	56.8
710.025	56.81
710.348	56.74
710.671	56.74
710.993	56.79
711.316	56.77
711.639	56.79
711.962	56.83
712.284	56.86
712.607	56.89
712.93	56.9
713.252	56.92
713.575	56.94
713.897	56.99
714.22	56.98
714.542	56.99
714.864	57.03
715.187	57.06
715.509	57.07
715.831	57.07
716.153	57.07
716.475	57.11
716.798	57.15
717.12	57.21
717.442	57.24
717.764	57.23
718.085	57.19
718.407	57.19
718.729	57.22
719.051	57.22
719.373	57.24
719.695	57.25
720.016	57.27
720.338	57.25
720.659	57.29
720.981	57.34
721.302	57.36
721.624	57.35
721.945	57.36
722.267	57.37
722.588	57.38
722.909	57.41
723.231	57.42
723.552	57.45
723.873	57.5
724.194	57.48
724.515	57.54
724.836	57.62
725.157	57.61
725.478	57.63
725.799	57.64
726.12	57.68
726.441	57.7
726.762	57.73
727.083	57.71
727.403	57.75
727.724	57.76
728.045	57.76
728.365	57.77
728.686	57.78
729.006	57.8
729.327	57.8
729.647	57.78
729.967	57.78
730.288	57.79
730.608	57.79
730.928	57.84
731.249	57.84
731.569	57.85
731.889	57.85
732.209	57.89
732.529	57.89
732.849	57.9
733.169	57.88
733.489	57.9
733.809	57.9
734.129	57.88
734.448	57.93
734.768	57.96
735.088	57.96
735.408	57.95
735.727	57.95
736.047	57.98
736.366	57.99
736.686	57.97
737.005	57.98
737.325	57.99
737.644	57.99
737.963	57.96
738.283	57.94
738.602	57.93
738.921	57.94
739.24	57.95
739.56	57.93
739.879	57.9
740.198	57.91
740.517	57.89
740.836	57.9
741.155	57.87
741.473	57.85
741.792	57.82
742.111	57.81
742.43	57.84
742.748	57.82
743.067	57.85
743.386	57.85
743.704	57.84
744.023	57.84
744.341	57.86
744.66	57.88
744.978	57.82
745.297	57.82
745.615	57.83
745.933	57.84
746.252	57.86
746.57	57.81
746.888	57.83
747.206	57.82
747.524	57.77
747.842	57.78
748.16	57.81
748.478	57.83
748.796	57.83
749.114	57.81
749.432	57.79
749.749	57.83
750.067	57.83
750.385	57.79
750.703	57.83
751.02	57.85
751.338	57.85
751.655	57.88
751.973	57.89
752.29	57.89
752.608	57.91
752.925	57.96
753.242	57.98
753.56	58.02
753.877	58.03
754.194	58.09
754.511	58.14
754.828	58.15
755.145	58.21
755.462	58.19
755.779	58.25
756.096	58.24
756.413	58.26
756.73	58.28
757.047	58.3
757.364	58.37
757.68	58.43
757.997	58.5
758.314	58.51
758.63	58.55
758.947	58.6
759.264	58.64
759.58	58.68
759.896	58.63
760.213	58.64
760.529	58.67
760.846	58.63
761.162	58.65
761.478	58.63
761.794	58.64
762.11	58.64
762.426	58.69
762.743	58.68
763.059	58.72
763.375	58.76
763.69	58.74
764.006	58.76
764.322	58.79
764.638	58.8
764.954	58.81
765.27	58.79
765.585	58.8
765.901	58.81
766.216	58.75
766.532	58.73
766.848	58.71
767.163	58.72
767.478	58.71
767.794	58.77
768.109	58.75
768.424	58.78
768.74	58.77
769.055	58.79
769.37	58.8
769.685	58.81
770	58.82
770.315	58.78
770.63	58.71
770.945	58.64
771.26	58.61
771.575	58.56
771.89	58.54
772.205	58.52
772.52	58.49
772.834	58.61
773.149	58.69
773.464	58.69
773.778	58.73
774.093	58.72
774.407	58.78
774.722	58.77
775.036	58.78
775.351	58.77
775.665	58.83
775.979	58.75
776.293	58.78
776.608	58.79
776.922	58.79
777.236	58.83
777.55	58.87
777.864	58.86
778.178	58.9
778.492	58.92
778.806	58.88
779.12	58.87
779.434	58.88
779.747	58.88
780.061	58.93
780.375	58.9
780.689	58.87
781.002	58.91
781.316	58.93
781.629	58.95
781.943	58.94
782.256	58.95
782.57	58.97
782.883	58.91
783.196	58.89
783.51	58.9
783.823	58.93
784.136	58.97
784.449	59
784.762	59
785.075	59.06
785.388	59.08
785.701	59.1
786.014	59.04
786.327	59.02
786.64	58.97
786.953	58.99
787.266	58.96
787.578	58.95
787.891	58.98
788.204	58.93
788.516	58.92
788.829	58.93
789.141	58.92
789.454	58.94
789.766	58.94
790.079	58.97
790.391	58.95
790.703	58.99
791.016	58.91
791.328	58.9
791.64	58.94
791.952	59
792.264	59.06
792.576	59.03
792.888	59.03
793.2	59.03
793.512	59.04
793.824	58.97
794.136	58.97
794.448	58.98
794.76	59.04
795.071	59.07
795.383	59.08
795.695	59.17
796.006	59.22
796.318	59.31
796.629	59.3
796.941	59.27
797.252	59.25
797.564	59.26
797.875	59.21
798.186	59.18
798.497	59.11
798.809	59.08
799.12	59.12
799.431	59.15
799.742	59.18
800.053	59.13
800.364	59.18
800.675	59.2
800.986	59.18
801.297	59.17
801.608	59.23
801.918	59.22
802.229	59.2
802.54	59.15
802.851	59.22
803.161	59.2
803.472	59.24
803.782	59.22
804.093	59.26
804.403	59.25
804.714	59.28
805.024	59.26
805.334	59.38
805.645	59.35
805.955	59.4
806.265	59.43
806.575	59.46
806.885	59.48
807.195	59.5
807.505	59.44
807.815	59.44
808.125	59.4
808.435	59.41
808.745	59.44
809.055	59.38
809.365	59.45
809.674	59.48
809.984	59.55
810.294	59.56
810.603	59.6
810.913	59.69
811.222	59.69
811.532	59.67
811.841	59.65
812.151	59.7
812.46	59.69
812.769	59.78
813.079	59.82
813.388	59.85
813.697	59.87
814.006	59.89
814.315	59.88
814.624	59.91
814.933	59.95
815.242	59.97
815.551	59.87
815.86	59.85
816.169	59.91
816.478	59.98
816.786	60
817.095	59.9
817.404	59.96
817.712	59.98
818.021	59.92
818.33	59.96
818.638	59.98
818.947	59.97
819.255	60.03
819.563	60
819.872	60.02
820.18	60.06
820.488	60.13
820.796	60.16
821.105	60.18
821.413	60.17
821.721	60.21
822.029	60.23
822.337	60.27
822.645	60.24
822.953	60.24
823.26	60.24
823.568	60.26
823.876	60.27
824.184	60.27
824.491	60.26
824.799	60.24
825.107	60.24
825.414	60.23
825.722	60.23
826.029	60.21
826.337	60.22
826.644	60.22
826.951	60.25
827.259	60.26
827.566	60.27
827.873	60.3
828.18	60.3
828.488	60.33
828.795	60.32
829.102	60.31
829.409	60.31
829.716	60.38
830.023	60.4
830.329	60.43
830.636	60.48
830.943	60.52
831.25	60.55
831.557	60.57
831.863	60.56
832.17	60.6
832.476	60.62
832.783	60.63
833.089	60.54
833.396	60.54
833.702	60.5
834.009	60.48
834.315	60.4
834.621	60.43
834.928	60.38
835.234	60.43
835.54	60.42
835.846	60.44
836.152	60.41
836.458	60.44
836.764	60.49
837.07	60.53
837.376	60.49
837.682	60.45
837.988	60.51
838.293	60.46
838.599	60.53
838.905	60.53
839.211	60.58
839.516	60.61
839.822	60.64
840.127	60.67
840.433	60.66
840.738	60.72
841.044	60.69
841.349	60.73
841.654	60.76
841.959	60.82
842.265	60.8
842.57	60.74
842.875	60.74
843.18	60.73
843.485	60.82
843.79	60.85
844.095	60.98
844.4	60.95
844.705	61.09
845.01	61.06
845.315	61.02
845.619	60.99
845.924	60.98
846.229	61.04
846.533	61.06
846.838	61.18
847.142	61.13
847.447	61.33
847.751	61.36
848.056	61.35
848.36	61.34
848.664	61.39
848.969	61.4
849.273	61.26
849.577	61.27
849.881	61.24
850.185	61.29
850.489	61.37
850.794	61.5
851.097	61.33
851.401	61.34
851.705	61.24
852.009	61.14
852.313	61.14
852.617	61.18
852.92	61.23
853.224	61.03
853.528	60.94
853.831	60.93
854.135	60.88
854.438	60.76
854.742	60.85
855.045	60.89
855.349	60.98
855.652	61.07
855.955	61.06
856.259	61
856.562	61.04
856.865	61.08
857.168	60.94
857.471	61.02
857.774	61
858.077	61.05
858.38	61
858.683	60.99
858.986	61.02
859.289	61.38
859.592	61.44
859.894	61.37
860.197	61.3
860.5	61.39
860.802	61.6
861.105	61.35
861.407	61.38
861.71	61.54
862.012	61.44
862.315	61.6
862.617	61.54
862.919	61.35
863.222	61.45
863.524	61.61
863.826	61.87
864.128	62.07
864.43	62.09
864.732	61.91
865.034	61.9
865.336	61.99
865.638	62.13
865.94	62.24
866.242	62.24
866.544	62.06
866.846	62.23
867.147	61.94
867.449	61.83
867.751	61.88
868.052	61.92
868.354	61.77
868.655	61.99
868.957	62.05
869.258	61.94
869.56	62.2
869.861	62.22
870.162	62.24
870.463	62.18
870.765	62.13
871.066	62.03
871.367	61.97
871.668	61.82
871.969	61.93
872.27	62.03
872.571	62.07
872.872	62.21
873.173	62.05
873.473	62.46
873.774	62.44
874.075	62.3
874.376	62.45
874.676	62.53
874.977	62.56
875.277	62.59
875.578	62.51
875.878	62.37
876.179	62.25
876.479	62.1
876.78	62.16
877.08	62.44
877.38	62.47
877.68	62.33
877.981	62.13
878.281	62.1
878.581	62.07
