Data from UWBM88853_Reflection_00002.txt Node
Date: Sun May 02 13:39:55 EDT 2021
User: vgr7
Spectrometer: USB2G7710
Scans to average: 10
Trigger mode: 4
Integration Time (sec): 1.000000E-1
Electric dark correction enabled: true
Boxcar width: 20
XAxis mode: Wavelengths
Number of Pixels in Spectrum: 2048
>>>>>Begin Spectral Data<<<<<
177.721	118.14
178.105	165.8
178.488	212.94
178.871	270.18
179.254	198.24
179.636	101.14
180.019	78.24
180.402	59.59
180.785	55.84
181.168	53.52
181.55	45.75
181.933	50.56
182.316	44.82
182.698	40.19
183.081	37.41
183.463	37.54
183.846	28.76
184.228	27.73
184.611	30.83
184.993	30.08
185.376	29.44
185.758	25.88
186.14	27.67
186.522	25.87
186.904	26.33
187.287	25.13
187.669	25.52
188.051	21.01
188.433	21.76
188.815	20.97
189.197	20.04
189.579	20.01
189.961	21.02
190.342	18.68
190.724	20.21
191.106	21.33
191.488	22.74
191.869	19.4
192.251	18.08
192.633	18.08
193.014	15.43
193.396	12.75
193.777	12.85
194.159	12.9
194.54	12.45
194.922	10.1
195.303	10.55
195.684	10.41
196.065	10.97
196.447	11.6
196.828	10.14
197.209	9.15
197.59	5.31
197.971	4.44
198.352	4.41
198.733	6.2
199.114	6.04
199.495	8.55
199.876	8.25
200.257	7.9
200.638	7.47
201.018	8.62
201.399	9.62
201.78	9.14
202.16	8.76
202.541	8.34
202.922	9.22
203.302	10.26
203.683	12.16
204.063	10.49
204.444	10.08
204.824	10.42
205.204	9.38
205.585	10.38
205.965	11.34
206.345	11
206.725	10.68
207.106	9.04
207.486	9.97
207.866	9.62
208.246	8.83
208.626	7.63
209.006	8.03
209.386	7.01
209.766	6.14
210.145	5.47
210.525	6.03
210.905	6.19
211.285	3.58
211.664	3.63
212.044	2.59
212.424	3
212.803	3.28
213.183	4.84
213.562	6.64
213.942	6.4
214.321	4.69
214.701	4.8
215.08	3.99
215.459	2.95
215.838	2.21
216.218	2.08
216.597	1.18
216.976	1.83
217.355	1.24
217.734	1.99
218.113	1.72
218.492	0.74
218.871	-1.17
219.25	-0.91
219.629	0.42
220.008	-0.24
220.387	-0.52
220.766	0.66
221.144	0.21
221.523	0.6
221.902	1.14
222.28	0.77
222.659	1.53
223.037	1.12
223.416	2.35
223.794	3.16
224.173	4.28
224.551	3.71
224.929	4.61
225.308	4.88
225.686	5.33
226.064	5.46
226.442	5.6
226.821	6.96
227.199	7.38
227.577	7.44
227.955	7.68
228.333	7.47
228.711	7.27
229.089	6.54
229.467	6.18
229.845	5.96
230.222	5.66
230.6	5.59
230.978	5.69
231.356	5.65
231.733	5.75
232.111	5.66
232.488	5.43
232.866	5.33
233.243	5.13
233.621	5.15
233.998	5.23
234.376	5.32
234.753	5.05
235.13	5.03
235.508	5.12
235.885	4.97
236.262	4.9
236.639	4.8
237.016	4.59
237.393	4.53
237.77	4.53
238.147	4.39
238.524	4.26
238.901	4.05
239.278	4.03
239.655	4.05
240.032	4.09
240.409	4.03
240.785	3.99
241.162	4.01
241.539	3.99
241.915	3.99
242.292	3.98
242.668	3.95
243.045	3.92
243.421	3.9
243.798	3.93
244.174	3.91
244.551	3.91
244.927	3.95
245.303	3.98
245.679	3.99
246.056	3.96
246.432	3.97
246.808	3.94
247.184	3.94
247.56	3.94
247.936	3.94
248.312	3.93
248.688	3.92
249.064	3.9
249.44	3.87
249.815	3.8
250.191	3.78
250.567	3.79
250.943	3.76
251.318	3.74
251.694	3.74
252.069	3.73
252.445	3.75
252.82	3.73
253.196	3.71
253.571	3.7
253.947	3.72
254.322	3.74
254.697	3.73
255.073	3.68
255.448	3.7
255.823	3.68
256.198	3.67
256.573	3.66
256.948	3.66
257.323	3.62
257.698	3.56
258.073	3.54
258.448	3.53
258.823	3.51
259.198	3.49
259.573	3.48
259.948	3.48
260.322	3.47
260.697	3.44
261.072	3.42
261.446	3.41
261.821	3.4
262.195	3.38
262.57	3.36
262.944	3.34
263.319	3.37
263.693	3.36
264.067	3.37
264.442	3.36
264.816	3.35
265.19	3.39
265.564	3.4
265.938	3.38
266.313	3.39
266.687	3.38
267.061	3.38
267.435	3.37
267.809	3.36
268.183	3.36
268.556	3.36
268.93	3.37
269.304	3.36
269.678	3.36
270.051	3.35
270.425	3.35
270.799	3.33
271.172	3.34
271.546	3.35
271.919	3.35
272.293	3.33
272.666	3.33
273.04	3.35
273.413	3.38
273.787	3.39
274.16	3.41
274.533	3.41
274.906	3.42
275.279	3.42
275.653	3.43
276.026	3.44
276.399	3.46
276.772	3.47
277.145	3.47
277.518	3.48
277.891	3.5
278.263	3.5
278.636	3.49
279.009	3.48
279.382	3.49
279.755	3.49
280.127	3.52
280.5	3.51
280.872	3.53
281.245	3.54
281.617	3.53
281.99	3.54
282.362	3.53
282.735	3.54
283.107	3.54
283.479	3.54
283.852	3.55
284.224	3.54
284.596	3.52
284.968	3.52
285.34	3.53
285.713	3.54
286.085	3.54
286.457	3.54
286.829	3.53
287.201	3.54
287.572	3.54
287.944	3.57
288.316	3.57
288.688	3.55
289.06	3.56
289.431	3.56
289.803	3.58
290.175	3.59
290.546	3.6
290.918	3.61
291.289	3.63
291.661	3.63
292.032	3.63
292.403	3.64
292.775	3.65
293.146	3.67
293.517	3.68
293.889	3.68
294.26	3.7
294.631	3.73
295.002	3.74
295.373	3.74
295.744	3.76
296.115	3.76
296.486	3.79
296.857	3.81
297.228	3.83
297.599	3.85
297.97	3.86
298.34	3.86
298.711	3.88
299.082	3.88
299.452	3.91
299.823	3.93
300.194	3.93
300.564	3.93
300.935	3.94
301.305	3.96
301.676	3.97
302.046	3.98
302.416	3.99
302.787	4
303.157	4.01
303.527	4.02
303.897	4.04
304.267	4.04
304.637	4.06
305.008	4.06
305.378	4.07
305.748	4.08
306.117	4.08
306.487	4.1
306.857	4.1
307.227	4.12
307.597	4.13
307.967	4.13
308.336	4.14
308.706	4.14
309.076	4.14
309.445	4.16
309.815	4.14
310.184	4.13
310.554	4.12
310.923	4.12
311.293	4.11
311.662	4.1
312.031	4.1
312.401	4.11
312.77	4.11
313.139	4.12
313.508	4.12
313.877	4.13
314.246	4.14
314.616	4.14
314.985	4.15
315.353	4.17
315.722	4.18
316.091	4.19
316.46	4.19
316.829	4.2
317.198	4.22
317.567	4.22
317.935	4.23
318.304	4.23
318.672	4.24
319.041	4.25
319.41	4.25
319.778	4.25
320.147	4.25
320.515	4.24
320.883	4.25
321.252	4.24
321.62	4.23
321.988	4.24
322.357	4.24
322.725	4.26
323.093	4.26
323.461	4.25
323.829	4.26
324.197	4.25
324.565	4.25
324.933	4.27
325.301	4.27
325.669	4.29
326.037	4.3
326.405	4.31
326.772	4.31
327.14	4.32
327.508	4.31
327.875	4.32
328.243	4.31
328.61	4.31
328.978	4.31
329.346	4.31
329.713	4.31
330.08	4.31
330.448	4.29
330.815	4.28
331.182	4.27
331.55	4.27
331.917	4.26
332.284	4.24
332.651	4.24
333.018	4.25
333.385	4.24
333.752	4.23
334.119	4.23
334.486	4.23
334.853	4.23
335.22	4.24
335.587	4.25
335.954	4.25
336.32	4.25
336.687	4.25
337.054	4.26
337.42	4.26
337.787	4.25
338.153	4.26
338.52	4.27
338.886	4.26
339.253	4.27
339.619	4.27
339.986	4.27
340.352	4.27
340.718	4.28
341.084	4.27
341.451	4.27
341.817	4.28
342.183	4.28
342.549	4.29
342.915	4.29
343.281	4.29
343.647	4.29
344.013	4.28
344.379	4.27
344.745	4.28
345.11	4.29
345.476	4.3
345.842	4.31
346.208	4.32
346.573	4.32
346.939	4.32
347.304	4.34
347.67	4.33
348.035	4.33
348.401	4.35
348.766	4.35
349.132	4.36
349.497	4.36
349.862	4.36
350.228	4.36
350.593	4.35
350.958	4.35
351.323	4.35
351.688	4.36
352.053	4.36
352.418	4.37
352.783	4.36
353.148	4.36
353.513	4.36
353.878	4.36
354.243	4.36
354.608	4.37
354.972	4.37
355.337	4.37
355.702	4.37
356.066	4.38
356.431	4.37
356.795	4.37
357.16	4.36
357.524	4.37
357.889	4.37
358.253	4.37
358.618	4.37
358.982	4.38
359.346	4.39
359.71	4.39
360.075	4.4
360.439	4.4
360.803	4.4
361.167	4.4
361.531	4.4
361.895	4.41
362.259	4.4
362.623	4.4
362.987	4.4
363.351	4.41
363.714	4.41
364.078	4.4
364.442	4.41
364.806	4.41
365.169	4.41
365.533	4.42
365.896	4.42
366.26	4.42
366.623	4.43
366.987	4.43
367.35	4.42
367.714	4.43
368.077	4.43
368.44	4.43
368.803	4.43
369.167	4.43
369.53	4.43
369.893	4.43
370.256	4.43
370.619	4.43
370.982	4.43
371.345	4.43
371.708	4.44
372.071	4.45
372.434	4.45
372.797	4.45
373.159	4.46
373.522	4.47
373.885	4.47
374.247	4.46
374.61	4.45
374.973	4.45
375.335	4.45
375.698	4.45
376.06	4.45
376.423	4.45
376.785	4.45
377.147	4.44
377.51	4.44
377.872	4.45
378.234	4.44
378.596	4.43
378.958	4.43
379.321	4.43
379.683	4.44
380.045	4.43
380.407	4.44
380.769	4.44
381.13	4.44
381.492	4.44
381.854	4.44
382.216	4.44
382.578	4.44
382.939	4.44
383.301	4.44
383.663	4.44
384.024	4.44
384.386	4.44
384.747	4.44
385.109	4.45
385.47	4.45
385.832	4.45
386.193	4.44
386.554	4.45
386.916	4.44
387.277	4.43
387.638	4.43
387.999	4.43
388.36	4.43
388.721	4.43
389.082	4.43
389.443	4.43
389.804	4.42
390.165	4.43
390.526	4.43
390.887	4.42
391.248	4.42
391.609	4.42
391.969	4.42
392.33	4.43
392.691	4.42
393.051	4.42
393.412	4.43
393.772	4.43
394.133	4.44
394.493	4.43
394.854	4.43
395.214	4.43
395.574	4.43
395.935	4.43
396.295	4.43
396.655	4.43
397.015	4.44
397.376	4.44
397.736	4.43
398.096	4.44
398.456	4.44
398.816	4.45
399.176	4.45
399.535	4.45
399.895	4.45
400.255	4.45
400.615	4.45
400.975	4.45
401.334	4.45
401.694	4.45
402.054	4.46
402.413	4.46
402.773	4.45
403.132	4.46
403.492	4.47
403.851	4.46
404.211	4.47
404.57	4.48
404.929	4.48
405.288	4.49
405.648	4.49
406.007	4.5
406.366	4.5
406.725	4.5
407.084	4.5
407.443	4.5
407.802	4.51
408.161	4.51
408.52	4.51
408.879	4.51
409.238	4.51
409.596	4.52
409.955	4.52
410.314	4.52
410.673	4.53
411.031	4.53
411.39	4.54
411.748	4.54
412.107	4.55
412.465	4.57
412.824	4.59
413.182	4.61
413.54	4.64
413.899	4.67
414.257	4.71
414.615	4.75
414.974	4.79
415.332	4.84
415.69	4.88
416.048	4.91
416.406	4.96
416.764	5
417.122	5.03
417.48	5.07
417.838	5.1
418.195	5.13
418.553	5.16
418.911	5.17
419.269	5.18
419.626	5.18
419.984	5.17
420.342	5.15
420.699	5.14
421.057	5.11
421.414	5.1
421.772	5.08
422.129	5.07
422.486	5.07
422.844	5.07
423.201	5.07
423.558	5.06
423.915	5.07
424.273	5.06
424.63	5.07
424.987	5.07
425.344	5.07
425.701	5.07
426.058	5.07
426.415	5.07
426.772	5.07
427.128	5.07
427.485	5.05
427.842	5.04
428.199	5.03
428.555	5.01
428.912	4.99
429.269	4.96
429.625	4.93
429.982	4.9
430.338	4.87
430.695	4.85
431.051	4.81
431.407	4.79
431.764	4.77
432.12	4.74
432.476	4.73
432.832	4.72
433.189	4.73
433.545	4.74
433.901	4.76
434.257	4.78
434.613	4.81
434.969	4.84
435.325	4.87
435.681	4.92
436.036	4.94
436.392	4.97
436.748	4.99
437.104	5
437.459	5.03
437.815	5.05
438.171	5.08
438.526	5.1
438.882	5.14
439.237	5.19
439.593	5.23
439.948	5.26
440.304	5.31
440.659	5.33
441.014	5.36
441.369	5.39
441.725	5.41
442.08	5.43
442.435	5.45
442.79	5.45
443.145	5.46
443.5	5.46
443.855	5.46
444.21	5.46
444.565	5.45
444.92	5.44
445.275	5.43
445.629	5.42
445.984	5.41
446.339	5.4
446.693	5.39
447.048	5.37
447.403	5.35
447.757	5.32
448.112	5.29
448.466	5.26
448.82	5.24
449.175	5.21
449.529	5.19
449.883	5.17
450.238	5.14
450.592	5.14
450.946	5.12
451.3	5.12
451.654	5.13
452.008	5.13
452.362	5.14
452.716	5.14
453.07	5.14
453.424	5.13
453.778	5.12
454.132	5.11
454.486	5.1
454.839	5.08
455.193	5.05
455.547	5.04
455.9	5.01
456.254	4.99
456.607	4.95
456.961	4.92
457.314	4.9
457.668	4.89
458.021	4.88
458.375	4.88
458.728	4.88
459.081	4.88
459.434	4.89
459.787	4.91
460.141	4.92
460.494	4.93
460.847	4.94
461.2	4.94
461.553	4.95
461.906	4.96
462.259	4.96
462.611	4.97
462.964	4.97
463.317	4.98
463.67	4.99
464.022	5
464.375	5.01
464.728	5.01
465.08	5.02
465.433	5.02
465.785	5.02
466.138	5
466.49	4.98
466.843	4.96
467.195	4.94
467.547	4.92
467.899	4.89
468.252	4.86
468.604	4.83
468.956	4.81
469.308	4.79
469.66	4.79
470.012	4.79
470.364	4.8
470.716	4.8
471.068	4.82
471.42	4.84
471.772	4.87
472.123	4.88
472.475	4.89
472.827	4.91
473.178	4.92
473.53	4.93
473.882	4.95
474.233	4.97
474.585	5.01
474.936	5.08
475.288	5.19
475.639	5.33
475.99	5.49
476.342	5.66
476.693	5.86
477.044	6.05
477.395	6.26
477.746	6.46
478.097	6.66
478.448	6.87
478.8	7.08
479.15	7.26
479.501	7.44
479.852	7.6
480.203	7.75
480.554	7.9
480.905	8.03
481.255	8.16
481.606	8.29
481.957	8.4
482.307	8.51
482.658	8.62
483.009	8.72
483.359	8.82
483.709	8.92
484.06	9.01
484.41	9.1
484.761	9.19
485.111	9.27
485.461	9.35
485.811	9.43
486.162	9.5
486.512	9.56
486.862	9.61
487.212	9.64
487.562	9.66
487.912	9.67
488.262	9.67
488.612	9.67
488.961	9.65
489.311	9.6
489.661	9.52
490.011	9.41
490.36	9.28
490.71	9.14
491.06	8.98
491.409	8.81
491.759	8.64
492.108	8.45
492.458	8.27
492.807	8.07
493.157	7.88
493.506	7.69
493.855	7.51
494.204	7.35
494.554	7.19
494.903	7.05
495.252	6.91
495.601	6.77
495.95	6.64
496.299	6.52
496.648	6.4
496.997	6.29
497.346	6.19
497.695	6.08
498.043	5.98
498.392	5.89
498.741	5.8
499.09	5.71
499.438	5.62
499.787	5.54
500.135	5.47
500.484	5.4
500.832	5.34
501.181	5.3
501.529	5.27
501.878	5.26
502.226	5.25
502.574	5.25
502.923	5.25
503.271	5.25
503.619	5.25
503.967	5.25
504.315	5.25
504.663	5.25
505.011	5.24
505.359	5.24
505.707	5.24
506.055	5.24
506.403	5.24
506.751	5.24
507.098	5.25
507.446	5.26
507.794	5.27
508.141	5.28
508.489	5.3
508.837	5.32
509.184	5.33
509.531	5.35
509.879	5.37
510.226	5.39
510.574	5.41
510.921	5.43
511.268	5.45
511.616	5.47
511.963	5.5
512.31	5.53
512.657	5.55
513.004	5.57
513.351	5.6
513.698	5.61
514.045	5.62
514.392	5.62
514.739	5.63
515.086	5.62
515.432	5.62
515.779	5.61
516.126	5.61
516.473	5.61
516.819	5.62
517.166	5.63
517.512	5.64
517.859	5.66
518.205	5.68
518.552	5.71
518.898	5.74
519.245	5.79
519.591	5.86
519.937	5.96
520.283	6.07
520.629	6.19
520.976	6.33
521.322	6.48
521.668	6.63
522.014	6.78
522.36	6.92
522.706	7.07
523.052	7.21
523.398	7.33
523.743	7.45
524.089	7.54
524.435	7.63
524.781	7.7
525.126	7.78
525.472	7.85
525.817	7.91
526.163	7.96
526.509	8.02
526.854	8.08
527.199	8.13
527.545	8.18
527.89	8.24
528.235	8.3
528.581	8.36
528.926	8.41
529.271	8.46
529.616	8.5
529.961	8.54
530.306	8.58
530.651	8.6
530.996	8.62
531.341	8.63
531.686	8.64
532.031	8.64
532.376	8.64
532.721	8.64
533.065	8.65
533.41	8.66
533.755	8.65
534.099	8.63
534.444	8.6
534.788	8.56
535.133	8.51
535.477	8.45
535.822	8.38
536.166	8.31
536.51	8.23
536.855	8.14
537.199	8.04
537.543	7.94
537.887	7.86
538.231	7.78
538.576	7.71
538.92	7.64
539.264	7.57
539.608	7.5
539.951	7.43
540.295	7.35
540.639	7.27
540.983	7.19
541.327	7.11
541.671	7.03
542.014	6.95
542.358	6.88
542.701	6.83
543.045	6.79
543.389	6.76
543.732	6.73
544.075	6.72
544.419	6.69
544.762	6.68
545.105	6.66
545.449	6.65
545.792	6.64
546.135	6.63
546.478	6.62
546.821	6.59
547.165	6.55
547.508	6.5
547.851	6.44
548.194	6.37
548.536	6.3
548.879	6.22
549.222	6.13
549.565	6.04
549.908	5.95
550.25	5.87
550.593	5.8
550.936	5.74
551.278	5.7
551.621	5.66
551.963	5.62
552.306	5.59
552.648	5.57
552.991	5.56
553.333	5.54
553.675	5.54
554.017	5.53
554.36	5.53
554.702	5.54
555.044	5.55
555.386	5.57
555.728	5.6
556.07	5.61
556.412	5.64
556.754	5.64
557.096	5.64
557.438	5.64
557.78	5.64
558.121	5.64
558.463	5.64
558.805	5.64
559.147	5.64
559.488	5.64
559.83	5.65
560.171	5.65
560.513	5.65
560.854	5.66
561.196	5.66
561.537	5.66
561.878	5.67
562.22	5.67
562.561	5.67
562.902	5.67
563.243	5.67
563.584	5.67
563.925	5.67
564.266	5.68
564.607	5.68
564.948	5.69
565.289	5.69
565.63	5.69
565.971	5.7
566.312	5.71
566.653	5.71
566.993	5.72
567.334	5.72
567.675	5.72
568.015	5.72
568.356	5.72
568.696	5.73
569.037	5.73
569.377	5.73
569.718	5.73
570.058	5.73
570.398	5.73
570.739	5.74
571.079	5.74
571.419	5.74
571.759	5.74
572.099	5.74
572.439	5.74
572.779	5.75
573.119	5.75
573.459	5.75
573.799	5.75
574.139	5.75
574.479	5.75
574.819	5.75
575.158	5.75
575.498	5.76
575.838	5.76
576.177	5.76
576.517	5.76
576.856	5.76
577.196	5.76
577.535	5.76
577.875	5.76
578.214	5.76
578.553	5.77
578.893	5.77
579.232	5.77
579.571	5.77
579.91	5.76
580.25	5.76
580.589	5.75
580.928	5.75
581.267	5.75
581.606	5.75
581.945	5.76
582.283	5.75
582.622	5.75
582.961	5.75
583.3	5.76
583.639	5.76
583.977	5.77
584.316	5.77
584.654	5.77
584.993	5.78
585.332	5.78
585.67	5.78
586.008	5.78
586.347	5.78
586.685	5.78
587.024	5.78
587.362	5.79
587.7	5.79
588.038	5.79
588.376	5.8
588.715	5.79
589.053	5.79
589.391	5.8
589.729	5.8
590.067	5.8
590.404	5.81
590.742	5.82
591.08	5.82
591.418	5.82
591.756	5.82
592.093	5.82
592.431	5.82
592.769	5.82
593.106	5.83
593.444	5.83
593.781	5.83
594.119	5.83
594.456	5.84
594.793	5.84
595.131	5.84
595.468	5.84
595.805	5.84
596.143	5.84
596.48	5.85
596.817	5.85
597.154	5.85
597.491	5.85
597.828	5.85
598.165	5.86
598.502	5.86
598.839	5.86
599.176	5.87
599.512	5.87
599.849	5.88
600.186	5.88
600.523	5.88
600.859	5.89
601.196	5.89
601.532	5.89
601.869	5.89
602.205	5.9
602.542	5.9
602.878	5.9
603.215	5.9
603.551	5.89
603.887	5.9
604.223	5.9
604.56	5.9
604.896	5.9
605.232	5.9
605.568	5.9
605.904	5.91
606.24	5.91
606.576	5.91
606.912	5.91
607.248	5.9
607.583	5.91
607.919	5.91
608.255	5.91
608.591	5.91
608.926	5.91
609.262	5.91
609.597	5.91
609.933	5.92
610.268	5.92
610.604	5.92
610.939	5.92
611.275	5.93
611.61	5.93
611.945	5.93
612.281	5.93
612.616	5.93
612.951	5.93
613.286	5.93
613.621	5.94
613.956	5.94
614.291	5.94
614.626	5.94
614.961	5.94
615.296	5.95
615.631	5.95
615.966	5.95
616.3	5.96
616.635	5.96
616.97	5.96
617.304	5.97
617.639	5.97
617.973	5.97
618.308	5.98
618.642	5.98
618.977	5.99
619.311	5.99
619.646	6
619.98	6.01
620.314	6.01
620.648	6.02
620.983	6.03
621.317	6.04
621.651	6.04
621.985	6.04
622.319	6.05
622.653	6.06
622.987	6.06
623.321	6.06
623.655	6.07
623.988	6.07
624.322	6.07
624.656	6.07
624.99	6.07
625.323	6.07
625.657	6.07
625.99	6.07
626.324	6.07
626.657	6.07
626.991	6.07
627.324	6.07
627.658	6.07
627.991	6.07
628.324	6.07
628.657	6.08
628.991	6.08
629.324	6.08
629.657	6.08
629.99	6.09
630.323	6.09
630.656	6.09
630.989	6.1
631.322	6.09
631.655	6.1
631.987	6.11
632.32	6.11
632.653	6.11
632.986	6.11
633.318	6.11
633.651	6.11
633.984	6.12
634.316	6.12
634.649	6.11
634.981	6.12
635.313	6.12
635.646	6.11
635.978	6.12
636.31	6.12
636.643	6.12
636.975	6.13
637.307	6.14
637.639	6.14
637.971	6.15
638.303	6.15
638.635	6.16
638.967	6.16
639.299	6.17
639.631	6.17
639.963	6.18
640.295	6.19
640.626	6.2
640.958	6.21
641.29	6.22
641.621	6.22
641.953	6.22
642.285	6.22
642.616	6.22
642.948	6.22
643.279	6.23
643.61	6.24
643.942	6.25
644.273	6.25
644.604	6.26
644.936	6.26
645.267	6.26
645.598	6.25
645.929	6.26
646.26	6.26
646.591	6.27
646.922	6.27
647.253	6.27
647.584	6.27
647.915	6.27
648.245	6.29
648.576	6.29
648.907	6.29
649.238	6.29
649.568	6.29
649.899	6.29
650.229	6.29
650.56	6.3
650.89	6.29
651.221	6.29
651.551	6.29
651.882	6.3
652.212	6.3
652.542	6.31
652.872	6.31
653.203	6.31
653.533	6.31
653.863	6.31
654.193	6.31
654.523	6.31
654.853	6.31
655.183	6.31
655.513	6.32
655.843	6.32
656.172	6.32
656.502	6.33
656.832	6.34
657.162	6.33
657.491	6.33
657.821	6.33
658.15	6.33
658.48	6.34
658.809	6.33
659.139	6.35
659.468	6.34
659.798	6.35
660.127	6.36
660.456	6.37
660.785	6.37
661.115	6.38
661.444	6.39
661.773	6.4
662.102	6.4
662.431	6.4
662.76	6.41
663.089	6.41
663.418	6.43
663.747	6.44
664.076	6.45
664.404	6.46
664.733	6.47
665.062	6.48
665.39	6.49
665.719	6.49
666.048	6.49
666.376	6.49
666.705	6.5
667.033	6.51
667.362	6.53
667.69	6.52
668.018	6.53
668.347	6.54
668.675	6.56
669.003	6.57
669.331	6.58
669.659	6.6
669.987	6.6
670.315	6.6
670.643	6.62
670.971	6.62
671.299	6.63
671.627	6.64
671.955	6.64
672.283	6.65
672.61	6.65
672.938	6.66
673.266	6.67
673.593	6.66
673.921	6.67
674.249	6.67
674.576	6.68
674.904	6.68
675.231	6.68
675.558	6.69
675.886	6.7
676.213	6.7
676.54	6.7
676.867	6.7
677.195	6.69
677.522	6.69
677.849	6.69
678.176	6.69
678.503	6.69
678.83	6.69
679.157	6.7
679.484	6.7
679.81	6.71
680.137	6.72
680.464	6.72
680.791	6.73
681.117	6.74
681.444	6.74
681.771	6.74
682.097	6.74
682.424	6.74
682.75	6.74
683.077	6.74
683.403	6.75
683.729	6.75
684.056	6.74
684.382	6.74
684.708	6.74
685.034	6.75
685.36	6.76
685.686	6.76
686.012	6.77
686.339	6.77
686.664	6.76
686.99	6.77
687.316	6.77
687.642	6.77
687.968	6.77
688.294	6.77
688.619	6.77
688.945	6.76
689.271	6.77
689.596	6.78
689.922	6.79
690.247	6.8
690.573	6.81
690.898	6.81
691.224	6.82
691.549	6.82
691.874	6.83
692.2	6.84
692.525	6.84
692.85	6.85
693.175	6.86
693.5	6.87
693.825	6.86
694.15	6.86
694.475	6.86
694.8	6.86
695.125	6.87
695.45	6.86
695.775	6.88
696.099	6.88
696.424	6.87
696.749	6.88
697.073	6.89
697.398	6.89
697.723	6.91
698.047	6.92
698.372	6.93
698.696	6.93
699.02	6.94
699.345	6.94
699.669	6.96
699.993	6.97
700.318	6.98
700.642	6.99
700.966	6.99
701.29	7.01
701.614	7.01
701.938	7.04
702.262	7.06
702.586	7.05
702.91	7.05
703.234	7.06
703.557	7.07
703.881	7.07
704.205	7.08
704.529	7.09
704.852	7.1
705.176	7.1
705.499	7.1
705.823	7.11
706.146	7.1
706.47	7.11
706.793	7.11
707.117	7.13
707.44	7.14
707.763	7.15
708.086	7.17
708.409	7.18
708.733	7.19
709.056	7.19
709.379	7.2
709.702	7.21
710.025	7.21
710.348	7.22
710.671	7.23
710.993	7.23
711.316	7.25
711.639	7.24
711.962	7.25
712.284	7.26
712.607	7.26
712.93	7.24
713.252	7.24
713.575	7.24
713.897	7.25
714.22	7.25
714.542	7.26
714.864	7.26
715.187	7.25
715.509	7.24
715.831	7.25
716.153	7.25
716.475	7.26
716.798	7.26
717.12	7.27
717.442	7.29
717.764	7.29
718.085	7.29
718.407	7.29
718.729	7.31
719.051	7.32
719.373	7.33
719.695	7.34
720.016	7.34
720.338	7.33
720.659	7.34
720.981	7.34
721.302	7.33
721.624	7.34
721.945	7.34
722.267	7.34
722.588	7.34
722.909	7.36
723.231	7.37
723.552	7.36
723.873	7.39
724.194	7.41
724.515	7.41
724.836	7.42
725.157	7.42
725.478	7.42
725.799	7.46
726.12	7.48
726.441	7.49
726.762	7.5
727.083	7.51
727.403	7.52
727.724	7.53
728.045	7.56
728.365	7.6
728.686	7.61
729.006	7.62
729.327	7.64
729.647	7.65
729.967	7.66
730.288	7.67
730.608	7.68
730.928	7.7
731.249	7.72
731.569	7.73
731.889	7.73
732.209	7.73
732.529	7.73
732.849	7.74
733.169	7.75
733.489	7.77
733.809	7.8
734.129	7.82
734.448	7.85
734.768	7.87
735.088	7.89
735.408	7.91
735.727	7.92
736.047	7.93
736.366	7.93
736.686	7.95
737.005	7.94
737.325	7.93
737.644	7.93
737.963	7.93
738.283	7.92
738.602	7.95
738.921	7.95
739.24	7.97
739.56	7.99
739.879	7.99
740.198	7.98
740.517	8
740.836	8
741.155	8
741.473	7.97
741.792	7.96
742.111	7.97
742.43	7.97
742.748	7.98
743.067	7.99
743.386	8.02
743.704	8.02
744.023	8
744.341	8.01
744.66	8.02
744.978	8.04
745.297	8.08
745.615	8.11
745.933	8.12
746.252	8.13
746.57	8.16
746.888	8.18
747.206	8.18
747.524	8.17
747.842	8.16
748.16	8.17
748.478	8.18
748.796	8.16
749.114	8.17
749.432	8.18
749.749	8.19
750.067	8.24
750.385	8.26
750.703	8.28
751.02	8.3
751.338	8.33
751.655	8.33
751.973	8.34
752.29	8.32
752.608	8.35
752.925	8.38
753.242	8.42
753.56	8.4
753.877	8.42
754.194	8.41
754.511	8.43
754.828	8.43
755.145	8.46
755.462	8.47
755.779	8.5
756.096	8.49
756.413	8.46
756.73	8.46
757.047	8.49
757.364	8.48
757.68	8.48
757.997	8.49
758.314	8.49
758.63	8.5
758.947	8.49
759.264	8.52
759.58	8.51
759.896	8.5
760.213	8.5
760.529	8.52
760.846	8.53
761.162	8.53
761.478	8.55
761.794	8.58
762.11	8.6
762.426	8.62
762.743	8.62
763.059	8.59
763.375	8.61
763.69	8.62
764.006	8.63
764.322	8.64
764.638	8.65
764.954	8.67
765.27	8.71
765.585	8.72
765.901	8.74
766.216	8.73
766.532	8.76
766.848	8.76
767.163	8.75
767.478	8.74
767.794	8.79
768.109	8.79
768.424	8.8
768.74	8.8
769.055	8.81
769.37	8.82
769.685	8.85
770	8.85
770.315	8.89
770.63	8.94
770.945	8.94
771.26	8.94
771.575	8.96
771.89	9.02
772.205	9.01
772.52	9.04
772.834	9.06
773.149	9.1
773.464	9.11
773.778	9.12
774.093	9.14
774.407	9.17
774.722	9.18
775.036	9.17
775.351	9.2
775.665	9.23
775.979	9.26
776.293	9.24
776.608	9.27
776.922	9.28
777.236	9.27
777.55	9.28
777.864	9.29
778.178	9.26
778.492	9.25
778.806	9.24
779.12	9.25
779.434	9.28
779.747	9.31
780.061	9.37
780.375	9.41
780.689	9.39
781.002	9.41
781.316	9.44
781.629	9.45
781.943	9.46
782.256	9.51
782.57	9.49
782.883	9.51
783.196	9.5
783.51	9.49
783.823	9.52
784.136	9.54
784.449	9.53
784.762	9.54
785.075	9.58
785.388	9.58
785.701	9.58
786.014	9.6
786.327	9.59
786.64	9.58
786.953	9.6
787.266	9.6
787.578	9.62
787.891	9.65
788.204	9.64
788.516	9.65
788.829	9.66
789.141	9.68
789.454	9.67
789.766	9.69
790.079	9.73
790.391	9.73
790.703	9.76
791.016	9.79
791.328	9.8
791.64	9.79
791.952	9.83
792.264	9.78
792.576	9.74
792.888	9.75
793.2	9.78
793.512	9.8
793.824	9.81
794.136	9.79
794.448	9.78
794.76	9.83
795.071	9.79
795.383	9.83
795.695	9.86
796.006	9.88
796.318	9.86
796.629	9.87
796.941	9.9
797.252	9.89
797.564	9.87
797.875	9.83
798.186	9.88
798.497	9.92
798.809	9.92
799.12	9.94
799.431	9.98
799.742	10
800.053	10
800.364	10
800.675	9.97
800.986	9.99
801.297	10
801.608	10
801.918	9.99
802.229	9.97
802.54	9.93
802.851	9.92
803.161	9.92
803.472	9.91
803.782	9.9
804.093	9.92
804.403	9.96
804.714	9.98
805.024	10.02
805.334	10.04
805.645	10.06
805.955	10.07
806.265	10.08
806.575	10.08
806.885	10.09
807.195	10.12
807.505	10.17
807.815	10.24
808.125	10.24
808.435	10.22
808.745	10.2
809.055	10.22
809.365	10.24
809.674	10.22
809.984	10.26
810.294	10.28
810.603	10.28
810.913	10.25
811.222	10.26
811.532	10.19
811.841	10.19
812.151	10.21
812.46	10.21
812.769	10.17
813.079	10.22
813.388	10.23
813.697	10.21
814.006	10.23
814.315	10.21
814.624	10.28
814.933	10.35
815.242	10.41
815.551	10.42
815.86	10.41
816.169	10.45
816.478	10.5
816.786	10.48
817.095	10.43
817.404	10.4
817.712	10.37
818.021	10.38
818.33	10.34
818.638	10.37
818.947	10.35
819.255	10.35
819.563	10.35
819.872	10.38
820.18	10.36
820.488	10.36
820.796	10.36
821.105	10.37
821.413	10.41
821.721	10.43
822.029	10.42
822.337	10.43
822.645	10.41
822.953	10.42
823.26	10.43
823.568	10.44
823.876	10.44
824.184	10.47
824.491	10.47
824.799	10.47
825.107	10.47
825.414	10.5
825.722	10.5
826.029	10.53
826.337	10.54
826.644	10.54
826.951	10.55
827.259	10.54
827.566	10.55
827.873	10.52
828.18	10.53
828.488	10.54
828.795	10.54
829.102	10.54
829.409	10.55
829.716	10.58
830.023	10.6
830.329	10.64
830.636	10.66
830.943	10.69
831.25	10.68
831.557	10.7
831.863	10.73
832.17	10.78
832.476	10.75
832.783	10.75
833.089	10.76
833.396	10.76
833.702	10.78
834.009	10.8
834.315	10.79
834.621	10.83
834.928	10.84
835.234	10.88
835.54	10.86
835.846	10.86
836.152	10.84
836.458	10.87
836.764	10.89
837.07	10.92
837.376	10.93
837.682	10.96
837.988	10.94
838.293	10.92
838.599	10.93
838.905	10.91
839.211	10.91
839.516	10.92
839.822	10.92
840.127	10.9
840.433	11
840.738	11.03
841.044	11.01
841.349	11
841.654	10.99
841.959	10.98
842.265	10.97
842.57	11.01
842.875	10.98
843.18	10.94
843.485	10.96
843.79	11.03
844.095	11.11
844.4	11.11
844.705	11.23
845.01	11.29
845.315	11.33
845.619	11.36
845.924	11.46
846.229	11.46
846.533	11.42
846.838	11.4
847.142	11.37
847.447	11.47
847.751	11.53
848.056	11.59
848.36	11.63
848.664	11.72
848.969	11.77
849.273	11.79
849.577	11.85
849.881	11.95
850.185	12.04
850.489	12.08
850.794	12.06
851.097	12.04
851.401	12.21
851.705	12.17
852.009	12.36
852.313	12.47
852.617	12.49
852.92	12.51
853.224	12.57
853.528	12.62
853.831	12.7
854.135	12.77
854.438	12.92
854.742	12.95
855.045	12.88
855.349	12.96
855.652	13.03
855.955	13.07
856.259	13.08
856.562	13.14
856.865	13.21
857.168	12.99
857.471	13.11
857.774	13.15
858.077	13.18
858.38	13.2
858.683	13.4
858.986	13.46
859.289	13.59
859.592	13.69
859.894	13.67
860.197	13.66
860.5	13.7
860.802	13.77
861.105	13.76
861.407	13.67
861.71	13.6
862.012	13.52
862.315	13.56
862.617	13.62
862.919	13.69
863.222	13.91
863.524	13.83
863.826	13.87
864.128	13.89
864.43	13.76
864.732	13.6
865.034	13.76
865.336	13.66
865.638	13.61
865.94	13.64
866.242	13.61
866.544	13.71
866.846	13.79
867.147	13.8
867.449	13.87
867.751	13.93
868.052	14.08
868.354	13.98
868.655	13.89
868.957	13.87
869.258	13.92
869.56	13.99
869.861	13.92
870.162	14.04
870.463	14.12
870.765	14.03
871.066	13.95
871.367	13.9
871.668	13.82
871.969	13.8
872.27	13.64
872.571	13.59
872.872	13.61
873.173	13.69
873.473	13.69
873.774	13.73
874.075	13.88
874.376	13.98
874.676	13.92
874.977	13.78
875.277	13.8
875.578	13.65
875.878	13.76
876.179	13.63
876.479	13.68
876.78	13.76
877.08	13.91
877.38	13.7
877.68	13.87
877.981	13.8
878.281	13.88
878.581	13.98
