Data from UWBM122453_Reflection_00004.txt Node
Date: Sun May 02 12:39:54 EDT 2021
User: vgr7
Spectrometer: USB2G7710
Scans to average: 10
Trigger mode: 4
Integration Time (sec): 1.000000E-1
Electric dark correction enabled: true
Boxcar width: 20
XAxis mode: Wavelengths
Number of Pixels in Spectrum: 2048
>>>>>Begin Spectral Data<<<<<
177.721	100.28
178.105	101.52
178.488	102.56
178.871	103
179.254	101.96
179.636	100.85
180.019	98.13
180.402	95.73
180.785	93.33
181.168	91.57
181.55	89.68
181.933	108.29
182.316	111.36
182.698	111.67
183.081	112.22
183.463	113.59
183.846	116.46
184.228	118.54
184.611	120.73
184.993	126.99
185.376	128.95
185.758	-90.58
186.14	-33.36
186.522	-1.87
186.904	13.45
187.287	25.68
187.669	30.86
188.051	28.27
188.433	32.05
188.815	26.11
189.197	25.41
189.579	25.29
189.961	24.64
190.342	20.22
190.724	20
191.106	17.27
191.488	15.87
191.869	10.29
192.251	10.22
192.633	7.35
193.014	5.1
193.396	4.59
193.777	9.52
194.159	7.42
194.54	5.25
194.922	6.81
195.303	8.78
195.684	9.24
196.065	10.04
196.447	8.42
196.828	8.2
197.209	10.46
197.59	-0.58
197.971	-2.13
198.352	-2.07
198.733	0.53
199.114	-1.1
199.495	-1
199.876	-0.22
200.257	-0.77
200.638	0.1
201.018	-6.63
201.399	-6.35
201.78	-8.68
202.16	-10.22
202.541	-9.86
202.922	-11.62
203.302	-15.88
203.683	-14.36
204.063	-15.08
204.444	-12.8
204.824	-10.56
205.204	-8.61
205.585	-0.71
205.965	-0.8
206.345	1.21
206.725	-3.68
207.106	-3.5
207.486	-3.79
207.866	-3.55
208.246	-3.98
208.626	-2.03
209.006	3.5
209.386	0.26
209.766	0.27
210.145	-0
210.525	-2.92
210.905	-2.13
211.285	-1.26
211.664	-2.62
212.044	-1.25
212.424	-1.11
212.803	-6.71
213.183	-4.52
213.562	-3.63
213.942	-4.56
214.321	-6.89
214.701	-6.45
215.08	-4.9
215.459	-4.52
215.838	-5.65
216.218	-4.75
216.597	-5.26
216.976	-8.15
217.355	-6.6
217.734	-6.01
218.113	-5.75
218.492	-4.96
218.871	-4.54
219.25	-5.07
219.629	-5.5
220.008	-6.17
220.387	-5.48
220.766	-3.6
221.144	-4.08
221.523	-1.95
221.902	-1.24
222.28	0.27
222.659	2.39
223.037	3.53
223.416	5.02
223.794	6.43
224.173	6.56
224.551	5.75
224.929	6.2
225.308	7.48
225.686	6.88
226.064	7.39
226.442	7.02
226.821	7.05
227.199	6.8
227.577	6.13
227.955	5.5
228.333	5
228.711	4.88
229.089	5.4
229.467	5.13
229.845	5.92
230.222	5.83
230.6	6.2
230.978	6.21
231.356	5.73
231.733	5.7
232.111	5.63
232.488	5.64
232.866	5.66
233.243	5.19
233.621	5.45
233.998	5.36
234.376	5.42
234.753	5.68
235.13	5.81
235.508	6.34
235.885	6.34
236.262	6.29
236.639	6.47
237.016	6.34
237.393	6.26
237.77	6.14
238.147	5.98
238.524	5.95
238.901	5.89
239.278	5.91
239.655	5.86
240.032	5.78
240.409	5.82
240.785	5.8
241.162	5.89
241.539	5.84
241.915	5.85
242.292	5.81
242.668	5.72
243.045	5.68
243.421	5.57
243.798	5.57
244.174	5.58
244.551	5.5
244.927	5.34
245.303	5.25
245.679	5.26
246.056	5.21
246.432	5.18
246.808	4.99
247.184	4.96
247.56	4.92
247.936	4.89
248.312	4.85
248.688	4.95
249.064	4.89
249.44	4.85
249.815	4.86
250.191	4.78
250.567	4.73
250.943	4.78
251.318	4.81
251.694	4.72
252.069	4.64
252.445	4.65
252.82	4.73
253.196	4.71
253.571	4.68
253.947	4.76
254.322	4.72
254.697	4.84
255.073	4.8
255.448	4.79
255.823	4.75
256.198	4.68
256.573	4.49
256.948	4.49
257.323	4.49
257.698	4.42
258.073	4.42
258.448	4.31
258.823	4.3
259.198	4.29
259.573	4.3
259.948	4.34
260.322	4.31
260.697	4.3
261.072	4.31
261.446	4.28
261.821	4.25
262.195	4.21
262.57	4.18
262.944	4.18
263.319	4.17
263.693	4.2
264.067	4.22
264.442	4.33
264.816	4.33
265.19	4.32
265.564	4.37
265.938	4.35
266.313	4.42
266.687	4.36
267.061	4.36
267.435	4.35
267.809	4.33
268.183	4.31
268.556	4.35
268.93	4.34
269.304	4.3
269.678	4.28
270.051	4.25
270.425	4.26
270.799	4.27
271.172	4.27
271.546	4.26
271.919	4.26
272.293	4.24
272.666	4.23
273.04	4.24
273.413	4.2
273.787	4.17
274.16	4.18
274.533	4.2
274.906	4.18
275.279	4.2
275.653	4.18
276.026	4.17
276.399	4.13
276.772	4.14
277.145	4.17
277.518	4.2
277.891	4.22
278.263	4.23
278.636	4.22
279.009	4.24
279.382	4.2
279.755	4.14
280.127	4.16
280.5	4.15
280.872	4.13
281.245	4.22
281.617	4.23
281.99	4.25
282.362	4.29
282.735	4.26
283.107	4.26
283.479	4.28
283.852	4.27
284.224	4.3
284.596	4.28
284.968	4.16
285.34	4.14
285.713	4.12
286.085	4.04
286.457	4.04
286.829	4.02
287.201	4.04
287.572	4.08
287.944	4.08
288.316	4.12
288.688	4.14
289.06	4.14
289.431	4.15
289.803	4.14
290.175	4.14
290.546	4.14
290.918	4.15
291.289	4.12
291.661	4.14
292.032	4.08
292.403	4.09
292.775	4.16
293.146	4.16
293.517	4.18
293.889	4.25
294.26	4.23
294.631	4.24
295.002	4.27
295.373	4.29
295.744	4.29
296.115	4.29
296.486	4.23
296.857	4.22
297.228	4.2
297.599	4.19
297.97	4.19
298.34	4.19
298.711	4.12
299.082	4.12
299.452	4.14
299.823	4.18
300.194	4.2
300.564	4.19
300.935	4.19
301.305	4.17
301.676	4.13
302.046	4.13
302.416	4.12
302.787	4.12
303.157	4.06
303.527	4.06
303.897	4.05
304.267	4.05
304.637	4.04
305.008	4.04
305.378	4.05
305.748	4.03
306.117	4.07
306.487	4.12
306.857	4.15
307.227	4.14
307.597	4.14
307.967	4.13
308.336	4.11
308.706	4.12
309.076	4.12
309.445	4.11
309.815	4
310.184	3.98
310.554	3.92
310.923	3.94
311.293	3.95
311.662	3.96
312.031	3.93
312.401	3.92
312.77	3.89
313.139	3.89
313.508	3.9
313.877	3.85
314.246	3.83
314.616	3.79
314.985	3.73
315.353	3.72
315.722	3.72
316.091	3.72
316.46	3.72
316.829	3.76
317.198	3.77
317.567	3.9
317.935	3.9
318.304	3.93
318.672	3.96
319.041	3.95
319.41	3.95
319.778	3.97
320.147	3.99
320.515	3.98
320.883	3.97
321.252	3.92
321.62	3.95
321.988	3.95
322.357	3.95
322.725	3.99
323.093	4
323.461	4
323.829	4
324.197	3.97
324.565	3.96
324.933	3.97
325.301	3.96
325.669	3.97
326.037	3.96
326.405	3.91
326.772	3.9
327.14	3.89
327.508	3.87
327.875	3.86
328.243	3.86
328.61	3.82
328.978	3.82
329.346	3.81
329.713	3.79
330.08	3.77
330.448	3.75
330.815	3.73
331.182	3.73
331.55	3.72
331.917	3.73
332.284	3.72
332.651	3.73
333.018	3.72
333.385	3.72
333.752	3.72
334.119	3.73
334.486	3.72
334.853	3.7
335.22	3.69
335.587	3.68
335.954	3.69
336.32	3.7
336.687	3.69
337.054	3.69
337.42	3.72
337.787	3.72
338.153	3.73
338.52	3.76
338.886	3.8
339.253	3.79
339.619	3.78
339.986	3.75
340.352	3.73
340.718	3.75
341.084	3.75
341.451	3.73
341.817	3.71
342.183	3.7
342.549	3.73
342.915	3.74
343.281	3.76
343.647	3.77
344.013	3.8
344.379	3.81
344.745	3.81
345.11	3.82
345.476	3.85
345.842	3.86
346.208	3.84
346.573	3.84
346.939	3.84
347.304	3.83
347.67	3.83
348.035	3.84
348.401	3.83
348.766	3.85
349.132	3.85
349.497	3.86
349.862	3.87
350.228	3.88
350.593	3.88
350.958	3.87
351.323	3.86
351.688	3.87
352.053	3.86
352.418	3.85
352.783	3.85
353.148	3.85
353.513	3.83
353.878	3.84
354.243	3.83
354.608	3.83
354.972	3.84
355.337	3.85
355.702	3.84
356.066	3.84
356.431	3.84
356.795	3.84
357.16	3.83
357.524	3.82
357.889	3.81
358.253	3.8
358.618	3.81
358.982	3.82
359.346	3.82
359.71	3.83
360.075	3.83
360.439	3.83
360.803	3.81
361.167	3.81
361.531	3.82
361.895	3.82
362.259	3.82
362.623	3.82
362.987	3.82
363.351	3.83
363.714	3.83
364.078	3.83
364.442	3.83
364.806	3.84
365.169	3.82
365.533	3.81
365.896	3.81
366.26	3.81
366.623	3.81
366.987	3.8
367.35	3.81
367.714	3.82
368.077	3.82
368.44	3.82
368.803	3.82
369.167	3.83
369.53	3.83
369.893	3.84
370.256	3.84
370.619	3.85
370.982	3.85
371.345	3.85
371.708	3.86
372.071	3.86
372.434	3.87
372.797	3.89
373.159	3.9
373.522	3.9
373.885	3.89
374.247	3.88
374.61	3.87
374.973	3.86
375.335	3.85
375.698	3.86
376.06	3.86
376.423	3.86
376.785	3.87
377.147	3.86
377.51	3.87
377.872	3.87
378.234	3.87
378.596	3.88
378.958	3.9
379.321	3.9
379.683	3.91
380.045	3.91
380.407	3.92
380.769	3.91
381.13	3.92
381.492	3.92
381.854	3.93
382.216	3.93
382.578	3.93
382.939	3.94
383.301	3.93
383.663	3.94
384.024	3.94
384.386	3.95
384.747	3.94
385.109	3.93
385.47	3.93
385.832	3.94
386.193	3.93
386.554	3.93
386.916	3.93
387.277	3.93
387.638	3.94
387.999	3.94
388.36	3.95
388.721	3.96
389.082	3.96
389.443	3.96
389.804	3.97
390.165	3.98
390.526	3.97
390.887	3.97
391.248	3.97
391.609	3.97
391.969	3.98
392.33	3.98
392.691	3.99
393.051	3.99
393.412	3.98
393.772	3.98
394.133	3.99
394.493	3.98
394.854	3.98
395.214	3.98
395.574	3.99
395.935	3.98
396.295	3.98
396.655	3.99
397.015	3.99
397.376	3.98
397.736	3.99
398.096	3.98
398.456	3.99
398.816	4
399.176	3.99
399.535	4
399.895	4.01
400.255	4
400.615	4.01
400.975	4.01
401.334	4.01
401.694	4.01
402.054	4.02
402.413	4
402.773	4
403.132	4.01
403.492	4
403.851	4.01
404.211	4.01
404.57	4.02
404.929	4.03
405.288	4.03
405.648	4.04
406.007	4.04
406.366	4.05
406.725	4.06
407.084	4.05
407.443	4.05
407.802	4.04
408.161	4.04
408.52	4.04
408.879	4.05
409.238	4.05
409.596	4.05
409.955	4.06
410.314	4.06
410.673	4.06
411.031	4.06
411.39	4.07
411.748	4.08
412.107	4.09
412.465	4.09
412.824	4.12
413.182	4.14
413.54	4.16
413.899	4.18
414.257	4.21
414.615	4.25
414.974	4.29
415.332	4.33
415.69	4.38
416.048	4.41
416.406	4.45
416.764	4.49
417.122	4.52
417.48	4.55
417.838	4.58
418.195	4.62
418.553	4.64
418.911	4.65
419.269	4.66
419.626	4.66
419.984	4.65
420.342	4.64
420.699	4.62
421.057	4.6
421.414	4.59
421.772	4.58
422.129	4.57
422.486	4.57
422.844	4.57
423.201	4.56
423.558	4.57
423.915	4.56
424.273	4.56
424.63	4.57
424.987	4.57
425.344	4.57
425.701	4.57
426.058	4.57
426.415	4.57
426.772	4.57
427.128	4.57
427.485	4.55
427.842	4.55
428.199	4.53
428.555	4.52
428.912	4.5
429.269	4.48
429.625	4.46
429.982	4.43
430.338	4.4
430.695	4.38
431.051	4.35
431.407	4.33
431.764	4.31
432.12	4.28
432.476	4.28
432.832	4.26
433.189	4.27
433.545	4.27
433.901	4.29
434.257	4.31
434.613	4.33
434.969	4.36
435.325	4.39
435.681	4.43
436.036	4.45
436.392	4.47
436.748	4.48
437.104	4.48
437.459	4.5
437.815	4.52
438.171	4.54
438.526	4.56
438.882	4.59
439.237	4.63
439.593	4.67
439.948	4.7
440.304	4.73
440.659	4.76
441.014	4.78
441.369	4.8
441.725	4.82
442.08	4.84
442.435	4.85
442.79	4.86
443.145	4.86
443.5	4.87
443.855	4.86
444.21	4.86
444.565	4.86
444.92	4.85
445.275	4.85
445.629	4.84
445.984	4.83
446.339	4.82
446.693	4.82
447.048	4.8
447.403	4.78
447.757	4.76
448.112	4.74
448.466	4.72
448.82	4.7
449.175	4.68
449.529	4.66
449.883	4.65
450.238	4.62
450.592	4.61
450.946	4.61
451.3	4.61
451.654	4.62
452.008	4.62
452.362	4.63
452.716	4.63
453.07	4.64
453.424	4.63
453.778	4.63
454.132	4.61
454.486	4.6
454.839	4.58
455.193	4.56
455.547	4.54
455.9	4.51
456.254	4.49
456.607	4.47
456.961	4.44
457.314	4.42
457.668	4.41
458.021	4.4
458.375	4.4
458.728	4.4
459.081	4.4
459.434	4.41
459.787	4.42
460.141	4.43
460.494	4.43
460.847	4.43
461.2	4.44
461.553	4.45
461.906	4.45
462.259	4.46
462.611	4.46
462.964	4.47
463.317	4.48
463.67	4.48
464.022	4.49
464.375	4.48
464.728	4.49
465.08	4.48
465.433	4.49
465.785	4.48
466.138	4.47
466.49	4.45
466.843	4.43
467.195	4.41
467.547	4.38
467.899	4.36
468.252	4.33
468.604	4.3
468.956	4.28
469.308	4.26
469.66	4.26
470.012	4.25
470.364	4.26
470.716	4.26
471.068	4.28
471.42	4.3
471.772	4.32
472.123	4.34
472.475	4.35
472.827	4.36
473.178	4.37
473.53	4.38
473.882	4.39
474.233	4.42
474.585	4.45
474.936	4.52
475.288	4.61
475.639	4.73
475.99	4.88
476.342	5.04
476.693	5.21
477.044	5.38
477.395	5.55
477.746	5.74
478.097	5.92
478.448	6.1
478.8	6.28
479.15	6.45
479.501	6.61
479.852	6.75
480.203	6.87
480.554	7
480.905	7.13
481.255	7.24
481.606	7.35
481.957	7.45
482.307	7.55
482.658	7.65
483.009	7.74
483.359	7.83
483.709	7.92
484.06	8
484.41	8.08
484.761	8.15
485.111	8.22
485.461	8.29
485.811	8.36
486.162	8.42
486.512	8.47
486.862	8.51
487.212	8.54
487.562	8.56
487.912	8.58
488.262	8.58
488.612	8.57
488.961	8.55
489.311	8.52
489.661	8.44
490.011	8.34
490.36	8.23
490.71	8.09
491.06	7.95
491.409	7.8
491.759	7.64
492.108	7.48
492.458	7.32
492.807	7.14
493.157	6.96
493.506	6.8
493.855	6.63
494.204	6.49
494.554	6.35
494.903	6.22
495.252	6.09
495.601	5.97
495.95	5.85
496.299	5.74
496.648	5.64
496.997	5.54
497.346	5.44
497.695	5.35
498.043	5.26
498.392	5.18
498.741	5.1
499.09	5.01
499.438	4.93
499.787	4.86
500.135	4.8
500.484	4.73
500.832	4.69
501.181	4.64
501.529	4.61
501.878	4.59
502.226	4.58
502.574	4.57
502.923	4.57
503.271	4.57
503.619	4.56
503.967	4.57
504.315	4.56
504.663	4.56
505.011	4.55
505.359	4.55
505.707	4.54
506.055	4.54
506.403	4.54
506.751	4.55
507.098	4.55
507.446	4.55
507.794	4.56
508.141	4.57
508.489	4.59
508.837	4.61
509.184	4.62
509.531	4.63
509.879	4.64
510.226	4.65
510.574	4.67
510.921	4.68
511.268	4.7
511.616	4.71
511.963	4.73
512.31	4.75
512.657	4.77
513.004	4.78
513.351	4.8
513.698	4.8
514.045	4.81
514.392	4.81
514.739	4.81
515.086	4.81
515.432	4.81
515.779	4.8
516.126	4.8
516.473	4.81
516.819	4.81
517.166	4.82
517.512	4.83
517.859	4.84
518.205	4.86
518.552	4.88
518.898	4.91
519.245	4.95
519.591	5.01
519.937	5.09
520.283	5.18
520.629	5.29
520.976	5.4
521.322	5.53
521.668	5.64
522.014	5.76
522.36	5.88
522.706	6
523.052	6.12
523.398	6.23
523.743	6.32
524.089	6.4
524.435	6.47
524.781	6.54
525.126	6.6
525.472	6.66
525.817	6.72
526.163	6.77
526.509	6.82
526.854	6.86
527.199	6.91
527.545	6.96
527.89	7.01
528.235	7.06
528.581	7.11
528.926	7.16
529.271	7.2
529.616	7.24
529.961	7.27
530.306	7.29
530.651	7.32
530.996	7.33
531.341	7.34
531.686	7.35
532.031	7.34
532.376	7.35
532.721	7.35
533.065	7.35
533.41	7.35
533.755	7.34
534.099	7.3
534.444	7.27
534.788	7.23
535.133	7.18
535.477	7.13
535.822	7.08
536.166	7.02
536.51	6.94
536.855	6.86
537.199	6.78
537.543	6.69
537.887	6.62
538.231	6.55
538.576	6.49
538.92	6.42
539.264	6.37
539.608	6.31
539.951	6.25
540.295	6.18
540.639	6.12
540.983	6.05
541.327	6
541.671	5.94
542.014	5.87
542.358	5.81
542.701	5.77
543.045	5.74
543.389	5.71
543.732	5.69
544.075	5.67
544.419	5.66
544.762	5.63
545.105	5.62
545.449	5.61
545.792	5.6
546.135	5.6
546.478	5.58
546.821	5.56
547.165	5.52
547.508	5.48
547.851	5.44
548.194	5.38
548.536	5.32
548.879	5.25
549.222	5.18
549.565	5.1
549.908	5.03
550.25	4.96
550.593	4.9
550.936	4.85
551.278	4.82
551.621	4.78
551.963	4.76
552.306	4.74
552.648	4.72
552.991	4.7
553.333	4.69
553.675	4.68
554.017	4.68
554.36	4.68
554.702	4.69
555.044	4.7
555.386	4.71
555.728	4.72
556.07	4.73
556.412	4.75
556.754	4.75
557.096	4.74
557.438	4.75
557.78	4.75
558.121	4.75
558.463	4.75
558.805	4.75
559.147	4.75
559.488	4.75
559.83	4.75
560.171	4.76
560.513	4.76
560.854	4.75
561.196	4.75
561.537	4.75
561.878	4.75
562.22	4.76
562.561	4.76
562.902	4.77
563.243	4.78
563.584	4.78
563.925	4.79
564.266	4.78
564.607	4.79
564.948	4.79
565.289	4.8
565.63	4.8
565.971	4.8
566.312	4.8
566.653	4.8
566.993	4.8
567.334	4.8
567.675	4.81
568.015	4.82
568.356	4.82
568.696	4.82
569.037	4.82
569.377	4.83
569.718	4.83
570.058	4.83
570.398	4.83
570.739	4.83
571.079	4.83
571.419	4.83
571.759	4.83
572.099	4.83
572.439	4.83
572.779	4.84
573.119	4.84
573.459	4.83
573.799	4.84
574.139	4.84
574.479	4.84
574.819	4.84
575.158	4.84
575.498	4.84
575.838	4.84
576.177	4.84
576.517	4.84
576.856	4.84
577.196	4.83
577.535	4.83
577.875	4.83
578.214	4.83
578.553	4.83
578.893	4.83
579.232	4.83
579.571	4.82
579.91	4.82
580.25	4.82
580.589	4.81
580.928	4.8
581.267	4.8
581.606	4.79
581.945	4.79
582.283	4.79
582.622	4.79
582.961	4.8
583.3	4.8
583.639	4.79
583.977	4.8
584.316	4.8
584.654	4.8
584.993	4.8
585.332	4.79
585.67	4.79
586.008	4.79
586.347	4.79
586.685	4.79
587.024	4.79
587.362	4.8
587.7	4.8
588.038	4.8
588.376	4.8
588.715	4.8
589.053	4.81
589.391	4.81
589.729	4.81
590.067	4.81
590.404	4.81
590.742	4.81
591.08	4.82
591.418	4.82
591.756	4.82
592.093	4.83
592.431	4.83
592.769	4.83
593.106	4.84
593.444	4.84
593.781	4.84
594.119	4.84
594.456	4.84
594.793	4.84
595.131	4.84
595.468	4.85
595.805	4.84
596.143	4.85
596.48	4.85
596.817	4.85
597.154	4.85
597.491	4.86
597.828	4.86
598.165	4.86
598.502	4.86
598.839	4.86
599.176	4.86
599.512	4.87
599.849	4.87
600.186	4.88
600.523	4.88
600.859	4.88
601.196	4.88
601.532	4.89
601.869	4.89
602.205	4.89
602.542	4.89
602.878	4.89
603.215	4.88
603.551	4.88
603.887	4.88
604.223	4.88
604.56	4.88
604.896	4.88
605.232	4.88
605.568	4.89
605.904	4.89
606.24	4.89
606.576	4.89
606.912	4.89
607.248	4.89
607.583	4.9
607.919	4.89
608.255	4.89
608.591	4.89
608.926	4.88
609.262	4.88
609.597	4.88
609.933	4.89
610.268	4.91
610.604	4.91
610.939	4.92
611.275	4.91
611.61	4.91
611.945	4.9
612.281	4.91
612.616	4.91
612.951	4.9
613.286	4.9
613.621	4.89
613.956	4.88
614.291	4.88
614.626	4.88
614.961	4.88
615.296	4.88
615.631	4.89
615.966	4.88
616.3	4.88
616.635	4.88
616.97	4.87
617.304	4.87
617.639	4.87
617.973	4.87
618.308	4.87
618.642	4.86
618.977	4.86
619.311	4.85
619.646	4.85
619.98	4.86
620.314	4.86
620.648	4.86
620.983	4.86
621.317	4.86
621.651	4.86
621.985	4.87
622.319	4.87
622.653	4.87
622.987	4.87
623.321	4.86
623.655	4.86
623.988	4.87
624.322	4.86
624.656	4.86
624.99	4.86
625.323	4.86
625.657	4.87
625.99	4.88
626.324	4.89
626.657	4.9
626.991	4.9
627.324	4.9
627.658	4.9
627.991	4.9
628.324	4.9
628.657	4.9
628.991	4.91
629.324	4.92
629.657	4.93
629.99	4.93
630.323	4.94
630.656	4.95
630.989	4.95
631.322	4.95
631.655	4.95
631.987	4.94
632.32	4.95
632.653	4.95
632.986	4.95
633.318	4.95
633.651	4.95
633.984	4.95
634.316	4.96
634.649	4.96
634.981	4.98
635.313	4.98
635.646	4.97
635.978	4.97
636.31	4.97
636.643	4.97
636.975	4.97
637.307	4.97
637.639	4.97
637.971	4.98
638.303	4.98
638.635	4.97
638.967	4.99
639.299	4.98
639.631	4.99
639.963	4.99
640.295	4.99
640.626	5
640.958	5.01
641.29	5
641.621	5
641.953	5.01
642.285	5.03
642.616	5.04
642.948	5.02
643.279	5.04
643.61	5.04
643.942	5.03
644.273	5.03
644.604	5.03
644.936	5.03
645.267	5.04
645.598	5.05
645.929	5.05
646.26	5.05
646.591	5.05
646.922	5.05
647.253	5.05
647.584	5.04
647.915	5.05
648.245	5.05
648.576	5.06
648.907	5.05
649.238	5.05
649.568	5.05
649.899	5.05
650.229	5.05
650.56	5.07
650.89	5.08
651.221	5.09
651.551	5.09
651.882	5.1
652.212	5.09
652.542	5.08
652.872	5.09
653.203	5.1
653.533	5.1
653.863	5.1
654.193	5.1
654.523	5.09
654.853	5.09
655.183	5.1
655.513	5.1
655.843	5.11
656.172	5.11
656.502	5.11
656.832	5.09
657.162	5.09
657.491	5.09
657.821	5.09
658.15	5.09
658.48	5.09
658.809	5.08
659.139	5.09
659.468	5.1
659.798	5.11
660.127	5.11
660.456	5.15
660.785	5.16
661.115	5.18
661.444	5.18
661.773	5.2
662.102	5.2
662.431	5.2
662.76	5.21
663.089	5.21
663.418	5.21
663.747	5.21
664.076	5.22
664.404	5.22
664.733	5.22
665.062	5.23
665.39	5.25
665.719	5.25
666.048	5.25
666.376	5.24
666.705	5.22
667.033	5.2
667.362	5.2
667.69	5.22
668.018	5.22
668.347	5.22
668.675	5.2
669.003	5.19
669.331	5.19
669.659	5.19
669.987	5.19
670.315	5.19
670.643	5.22
670.971	5.22
671.299	5.22
671.627	5.21
671.955	5.21
672.283	5.21
672.61	5.22
672.938	5.24
673.266	5.24
673.593	5.24
673.921	5.24
674.249	5.24
674.576	5.25
674.904	5.26
675.231	5.25
675.558	5.27
675.886	5.28
676.213	5.28
676.54	5.28
676.867	5.29
677.195	5.29
677.522	5.3
677.849	5.31
678.176	5.32
678.503	5.33
678.83	5.33
679.157	5.33
679.484	5.32
679.81	5.32
680.137	5.32
680.464	5.33
680.791	5.32
681.117	5.31
681.444	5.29
681.771	5.29
682.097	5.3
682.424	5.31
682.75	5.29
683.077	5.28
683.403	5.29
683.729	5.29
684.056	5.28
684.382	5.26
684.708	5.26
685.034	5.27
685.36	5.27
685.686	5.28
686.012	5.3
686.339	5.32
686.664	5.31
686.99	5.32
687.316	5.32
687.642	5.34
687.968	5.36
688.294	5.36
688.619	5.37
688.945	5.38
689.271	5.38
689.596	5.38
689.922	5.4
690.247	5.41
690.573	5.42
690.898	5.44
691.224	5.45
691.549	5.45
691.874	5.43
692.2	5.45
692.525	5.46
692.85	5.45
693.175	5.47
693.5	5.49
693.825	5.49
694.15	5.49
694.475	5.5
694.8	5.5
695.125	5.51
695.45	5.53
695.775	5.53
696.099	5.53
696.424	5.55
696.749	5.55
697.073	5.56
697.398	5.56
697.723	5.57
698.047	5.58
698.372	5.59
698.696	5.57
699.02	5.56
699.345	5.56
699.669	5.56
699.993	5.55
700.318	5.54
700.642	5.53
700.966	5.54
701.29	5.52
701.614	5.53
701.938	5.53
702.262	5.54
702.586	5.54
702.91	5.55
703.234	5.57
703.557	5.54
703.881	5.53
704.205	5.56
704.529	5.58
704.852	5.57
705.176	5.6
705.499	5.61
705.823	5.62
706.146	5.62
706.47	5.61
706.793	5.62
707.117	5.73
707.44	5.74
707.763	5.7
708.086	5.7
708.409	5.7
708.733	5.68
709.056	5.67
709.379	5.67
709.702	5.7
710.025	5.7
710.348	5.53
710.671	5.53
710.993	5.53
711.316	5.53
711.639	5.54
711.962	5.54
712.284	5.56
712.607	5.58
712.93	5.58
713.252	5.61
713.575	5.59
713.897	5.58
714.22	5.58
714.542	5.63
714.864	5.68
715.187	5.71
715.509	5.72
715.831	5.71
716.153	5.72
716.475	5.69
716.798	5.68
717.12	5.86
717.442	5.86
717.764	5.83
718.085	5.75
718.407	5.76
718.729	5.75
719.051	5.76
719.373	5.78
719.695	5.78
720.016	5.79
720.338	5.71
720.659	5.73
720.981	5.76
721.302	5.76
721.624	5.77
721.945	5.76
722.267	5.78
722.588	5.79
722.909	5.8
723.231	5.84
723.552	5.85
723.873	5.88
724.194	5.89
724.515	5.9
724.836	6.02
725.157	6.03
725.478	6.03
725.799	6.04
726.12	6.04
726.441	6.04
726.762	6.09
727.083	6.07
727.403	6.09
727.724	6.06
728.045	5.98
728.365	5.99
728.686	6.03
729.006	6.04
729.327	6.03
729.647	6.03
729.967	6.04
730.288	6.06
730.608	6.06
730.928	6.09
731.249	6.08
731.569	6.07
731.889	6.07
732.209	6.08
732.529	6.08
732.849	6.09
733.169	6.09
733.489	6.08
733.809	6.1
734.129	6.12
734.448	6.14
734.768	6.12
735.088	6.11
735.408	6.12
735.727	6.13
736.047	6.15
736.366	6.15
736.686	6.15
737.005	6.14
737.325	6.12
737.644	6.12
737.963	6.13
738.283	6.14
738.602	6.16
738.921	6.16
739.24	6.15
739.56	6.16
739.879	6.14
740.198	6.17
740.517	6.18
740.836	6.19
741.155	6.2
741.473	6.23
741.792	6.24
742.111	6.24
742.43	6.26
742.748	6.26
743.067	6.25
743.386	6.26
743.704	6.27
744.023	6.31
744.341	6.32
744.66	6.33
744.978	6.26
745.297	6.29
745.615	6.26
745.933	6.29
746.252	6.28
746.57	6.22
746.888	6.21
747.206	6.21
747.524	6.22
747.842	6.26
748.16	6.28
748.478	6.27
748.796	6.22
749.114	6.21
749.432	6.21
749.749	6.26
750.067	6.29
750.385	6.3
750.703	6.29
751.02	6.27
751.338	6.27
751.655	6.31
751.973	6.33
752.29	6.33
752.608	6.36
752.925	6.39
753.242	6.47
753.56	6.49
753.877	6.45
754.194	6.52
754.511	6.49
754.828	6.48
755.145	6.53
755.462	6.54
755.779	6.54
756.096	6.6
756.413	6.59
756.73	6.56
757.047	6.55
757.364	6.54
757.68	6.59
757.997	6.58
758.314	6.58
758.63	6.62
758.947	6.64
759.264	6.64
759.58	6.65
759.896	6.63
760.213	6.63
760.529	6.61
760.846	6.56
761.162	6.58
761.478	6.57
761.794	6.56
762.11	6.57
762.426	6.6
762.743	6.57
763.059	6.62
763.375	6.64
763.69	6.66
764.006	6.67
764.322	6.68
764.638	6.68
764.954	6.71
765.27	6.72
765.585	6.71
765.901	6.73
766.216	6.59
766.532	6.55
766.848	6.55
767.163	6.58
767.478	6.64
767.794	6.64
768.109	6.64
768.424	6.65
768.74	6.66
769.055	6.65
769.37	6.69
769.685	6.68
770	6.71
770.315	6.74
770.63	6.64
770.945	6.58
771.26	6.57
771.575	6.54
771.89	6.53
772.205	6.56
772.52	6.52
772.834	6.68
773.149	6.75
773.464	6.69
773.778	6.71
774.093	6.72
774.407	6.76
774.722	6.77
775.036	6.74
775.351	6.72
775.665	6.74
775.979	6.61
776.293	6.61
776.608	6.62
776.922	6.59
777.236	6.69
777.55	6.77
777.864	6.78
778.178	6.82
778.492	6.76
778.806	6.72
779.12	6.77
779.434	6.78
779.747	6.74
780.061	6.85
780.375	6.79
780.689	6.73
781.002	6.77
781.316	6.76
781.629	6.82
781.943	6.86
782.256	6.9
782.57	6.97
782.883	6.94
783.196	6.9
783.51	6.98
783.823	7.04
784.136	7.02
784.449	7.07
784.762	7.08
785.075	7.14
785.388	7.13
785.701	7.17
786.014	7.14
786.327	7.18
786.64	7.13
786.953	7.18
787.266	7.25
787.578	7.24
787.891	7.31
788.204	7.25
788.516	7.22
788.829	7.27
789.141	7.23
789.454	7.23
789.766	7.25
790.079	7.26
790.391	7.24
790.703	7.33
791.016	7.21
791.328	7.27
791.64	7.3
791.952	7.33
792.264	7.38
792.576	7.4
792.888	7.4
793.2	7.4
793.512	7.43
793.824	7.35
794.136	7.35
794.448	7.41
794.76	7.47
795.071	7.47
795.383	7.44
795.695	7.58
796.006	7.67
796.318	7.67
796.629	7.67
796.941	7.69
797.252	7.68
797.564	7.75
797.875	7.68
798.186	7.62
798.497	7.58
798.809	7.43
799.12	7.43
799.431	7.45
799.742	7.41
800.053	7.29
800.364	7.41
800.675	7.42
800.986	7.45
801.297	7.61
801.608	7.6
801.918	7.64
802.229	7.67
802.54	7.64
802.851	7.63
803.161	7.62
803.472	7.59
803.782	7.54
804.093	7.58
804.403	7.46
804.714	7.55
805.024	7.52
805.334	7.65
805.645	7.65
805.955	7.75
806.265	7.74
806.575	7.83
806.885	7.76
807.195	7.73
807.505	7.68
807.815	7.64
808.125	7.69
808.435	7.66
808.745	7.62
809.055	7.64
809.365	7.77
809.674	7.74
809.984	7.76
810.294	7.78
810.603	7.76
810.913	8.02
811.222	7.97
811.532	8.12
811.841	8.15
812.151	8.24
812.46	8.28
812.769	8.39
813.079	8.4
813.388	8.45
813.697	8.43
814.006	8.3
814.315	8.37
814.624	8.31
814.933	8.26
815.242	8.17
815.551	8.21
815.86	8.16
816.169	8.18
816.478	8.19
816.786	8.16
817.095	8.17
817.404	8.17
817.712	8.17
818.021	8.11
818.33	8.1
818.638	8.07
818.947	8.05
819.255	8.04
819.563	8.09
819.872	8.08
820.18	8.1
820.488	8.11
820.796	8.07
821.105	8.05
821.413	8.09
821.721	8.1
822.029	8.11
822.337	8.14
822.645	8.14
822.953	8.13
823.26	8.17
823.568	8.16
823.876	8.14
824.184	8.13
824.491	8.13
824.799	8.13
825.107	8.13
825.414	8.14
825.722	8.15
826.029	8.12
826.337	8.13
826.644	8.13
826.951	8.13
827.259	8.16
827.566	8.2
827.873	8.25
828.18	8.21
828.488	8.21
828.795	8.21
829.102	8.21
829.409	8.24
829.716	8.26
830.023	8.28
830.329	8.32
830.636	8.35
830.943	8.42
831.25	8.47
831.557	8.48
831.863	8.51
832.17	8.51
832.476	8.55
832.783	8.53
833.089	8.51
833.396	8.53
833.702	8.54
834.009	8.48
834.315	8.47
834.621	8.53
834.928	8.55
835.234	8.55
835.54	8.54
835.846	8.56
836.152	8.6
836.458	8.63
836.764	8.58
837.07	8.59
837.376	8.46
837.682	8.36
837.988	8.4
838.293	8.25
838.599	8.31
838.905	8.26
839.211	8.36
839.516	8.4
839.822	8.51
840.127	8.48
840.433	8.52
840.738	8.53
841.044	8.56
841.349	8.63
841.654	8.73
841.959	8.75
842.265	8.72
842.57	8.73
842.875	8.73
843.18	8.92
843.485	8.99
843.79	9.14
844.095	9.32
844.4	9.09
844.705	9.3
845.01	9.27
845.315	9.26
845.619	9.27
845.924	9.06
846.229	8.89
846.533	8.91
846.838	9.03
847.142	8.88
847.447	8.95
847.751	8.77
848.056	8.84
848.36	8.82
848.664	8.78
848.969	8.78
849.273	8.77
849.577	8.62
849.881	8.59
850.185	8.59
850.489	8.85
850.794	9.14
851.097	9.12
851.401	9.27
851.705	9.34
852.009	9.37
852.313	9.32
852.617	9.47
852.92	9.42
853.224	9.46
853.528	9.33
853.831	9.49
854.135	9.29
854.438	9.24
854.742	9.35
855.045	9.28
855.349	9.39
855.652	9.41
855.955	9.41
856.259	9.43
856.562	9.63
856.865	9.64
857.168	9.5
857.471	9.49
857.774	9.52
858.077	9.4
858.38	9.57
858.683	9.56
858.986	9.44
859.289	9.82
859.592	9.96
859.894	10.13
860.197	10.27
860.5	10.29
860.802	10.38
861.105	10.35
861.407	10.6
861.71	10.6
862.012	10.7
862.315	10.8
862.617	10.71
862.919	10.35
863.222	10.54
863.524	10.42
863.826	10.64
864.128	10.87
864.43	10.94
864.732	10.97
865.034	11.07
865.336	11.13
865.638	10.89
865.94	10.63
866.242	10.37
866.544	9.95
866.846	10.36
867.147	10.03
867.449	9.97
867.751	9.97
868.052	10
868.354	9.86
868.655	10.01
868.957	10.04
869.258	10.09
869.56	10.15
869.861	10.41
870.162	10.21
870.463	10.11
870.765	10.2
871.066	10.26
871.367	10.1
871.668	10.04
871.969	10.05
872.27	10.13
872.571	10.2
872.872	10.62
873.173	10.44
873.473	10.75
873.774	10.74
874.075	10.75
874.376	10.83
874.676	10.84
874.977	10.86
875.277	10.73
875.578	10.55
875.878	10.44
876.179	10.44
876.479	10.1
876.78	10.1
877.08	10.02
877.38	10
877.68	10.09
877.981	10.14
878.281	10.39
878.581	10.47
