Data from UWBM59058_Reflection_00002.txt Node
Date: Sun May 02 12:56:43 EDT 2021
User: vgr7
Spectrometer: USB2G7710
Scans to average: 10
Trigger mode: 4
Integration Time (sec): 1.000000E-1
Electric dark correction enabled: true
Boxcar width: 20
XAxis mode: Wavelengths
Number of Pixels in Spectrum: 2048
>>>>>Begin Spectral Data<<<<<
177.721	99.3
178.105	100.21
178.488	100.17
178.871	100.26
179.254	101.15
179.636	97.47
180.019	94.8
180.402	92.19
180.785	87.74
181.168	84.43
181.55	81.65
181.933	117.12
182.316	119.3
182.698	120.79
183.081	121.86
183.463	122.31
183.846	125.28
184.228	126.53
184.611	127.76
184.993	130.95
185.376	134.84
185.758	-147.48
186.14	-78.3
186.522	-35.81
186.904	-15.84
187.287	-2.07
187.669	2.02
188.051	2.28
188.433	6.72
188.815	1.29
189.197	2.51
189.579	4.08
189.961	3.01
190.342	-1.78
190.724	2.61
191.106	0.54
191.488	0.41
191.869	-5.39
192.251	-4.21
192.633	-6.14
193.014	-7.92
193.396	-8.44
193.777	-2.89
194.159	-3.58
194.54	-4.83
194.922	-5.84
195.303	-2.01
195.684	0.26
196.065	0.66
196.447	0.38
196.828	-0.93
197.209	1.28
197.59	-10.36
197.971	-10.69
198.352	-10.67
198.733	-7.8
199.114	-9.88
199.495	-7.88
199.876	-8.5
200.257	-10.09
200.638	-11.77
201.018	-17.16
201.399	-18.6
201.78	-20.04
202.16	-21.42
202.541	-20.56
202.922	-21.11
203.302	-23.38
203.683	-23.19
204.063	-23.82
204.444	-21.98
204.824	-19.7
205.204	-17.39
205.585	-6.18
205.965	-6.37
206.345	-3.61
206.725	-9.41
207.106	-8.99
207.486	-8.56
207.866	-9.58
208.246	-10.04
208.626	-5.83
209.006	-0.93
209.386	-6.88
209.766	-7.39
210.145	-9.11
210.525	-9.56
210.905	-9.35
211.285	-8.28
211.664	-9.32
212.044	-8.5
212.424	-7.22
212.803	-13.73
213.183	-10.74
213.562	-12.01
213.942	-11.72
214.321	-15.66
214.701	-16.6
215.08	-15.36
215.459	-15.4
215.838	-16.6
216.218	-14.83
216.597	-16.93
216.976	-19.03
217.355	-18.97
217.734	-17.8
218.113	-17.7
218.492	-16.79
218.871	-16.3
219.25	-16.1
219.629	-16.54
220.008	-15.36
220.387	-13.54
220.766	-11.89
221.144	-13.01
221.523	-9.73
221.902	-8.92
222.28	-6.36
222.659	-4.44
223.037	-4.14
223.416	-2.67
223.794	-0.27
224.173	-0.8
224.551	-0.21
224.929	0.43
225.308	1.87
225.686	2.34
226.064	2.52
226.442	2.5
226.821	2.36
227.199	2.51
227.577	2.26
227.955	1.64
228.333	1.6
228.711	1.87
229.089	2.92
229.467	2.41
229.845	3.21
230.222	3.38
230.6	3.91
230.978	4.4
231.356	3.8
231.733	3.79
232.111	3.89
232.488	3.37
232.866	3.51
233.243	3.11
233.621	3.49
233.998	3.39
234.376	3.57
234.753	3.84
235.13	4.03
235.508	4.54
235.885	4.39
236.262	4.44
236.639	4.68
237.016	4.54
237.393	4.5
237.77	4.34
238.147	4.27
238.524	4.35
238.901	4.39
239.278	4.41
239.655	4.54
240.032	4.43
240.409	4.53
240.785	4.48
241.162	4.57
241.539	4.55
241.915	4.58
242.292	4.57
242.668	4.49
243.045	4.48
243.421	4.36
243.798	4.32
244.174	4.33
244.551	4.3
244.927	4.14
245.303	4.12
245.679	4.18
246.056	4.14
246.432	4.08
246.808	3.87
247.184	3.85
247.56	3.79
247.936	3.84
248.312	3.84
248.688	3.93
249.064	3.88
249.44	3.89
249.815	3.9
250.191	3.83
250.567	3.79
250.943	3.88
251.318	3.91
251.694	3.83
252.069	3.73
252.445	3.77
252.82	3.85
253.196	3.86
253.571	3.82
253.947	3.92
254.322	3.9
254.697	4.03
255.073	4.01
255.448	4.01
255.823	3.97
256.198	3.92
256.573	3.73
256.948	3.7
257.323	3.72
257.698	3.67
258.073	3.66
258.448	3.53
258.823	3.53
259.198	3.53
259.573	3.54
259.948	3.56
260.322	3.53
260.697	3.53
261.072	3.49
261.446	3.44
261.821	3.42
262.195	3.4
262.57	3.4
262.944	3.42
263.319	3.41
263.693	3.45
264.067	3.45
264.442	3.56
264.816	3.55
265.19	3.52
265.564	3.59
265.938	3.57
266.313	3.61
266.687	3.56
267.061	3.57
267.435	3.56
267.809	3.53
268.183	3.51
268.556	3.53
268.93	3.54
269.304	3.5
269.678	3.45
270.051	3.42
270.425	3.42
270.799	3.44
271.172	3.45
271.546	3.46
271.919	3.48
272.293	3.48
272.666	3.47
273.04	3.47
273.413	3.41
273.787	3.4
274.16	3.42
274.533	3.47
274.906	3.43
275.279	3.47
275.653	3.45
276.026	3.44
276.399	3.43
276.772	3.45
277.145	3.49
277.518	3.52
277.891	3.52
278.263	3.53
278.636	3.54
279.009	3.56
279.382	3.53
279.755	3.48
280.127	3.5
280.5	3.5
280.872	3.47
281.245	3.59
281.617	3.59
281.99	3.61
282.362	3.66
282.735	3.66
283.107	3.66
283.479	3.68
283.852	3.7
284.224	3.71
284.596	3.7
284.968	3.59
285.34	3.59
285.713	3.55
286.085	3.46
286.457	3.46
286.829	3.44
287.201	3.44
287.572	3.49
287.944	3.49
288.316	3.54
288.688	3.59
289.06	3.59
289.431	3.58
289.803	3.57
290.175	3.61
290.546	3.61
290.918	3.62
291.289	3.59
291.661	3.59
292.032	3.55
292.403	3.57
292.775	3.66
293.146	3.67
293.517	3.68
293.889	3.75
294.26	3.74
294.631	3.78
295.002	3.82
295.373	3.84
295.744	3.84
296.115	3.85
296.486	3.77
296.857	3.78
297.228	3.79
297.599	3.77
297.97	3.77
298.34	3.8
298.711	3.73
299.082	3.71
299.452	3.75
299.823	3.79
300.194	3.8
300.564	3.79
300.935	3.81
301.305	3.81
301.676	3.79
302.046	3.79
302.416	3.8
302.787	3.8
303.157	3.73
303.527	3.72
303.897	3.72
304.267	3.73
304.637	3.73
305.008	3.74
305.378	3.74
305.748	3.73
306.117	3.81
306.487	3.86
306.857	3.91
307.227	3.91
307.597	3.89
307.967	3.89
308.336	3.89
308.706	3.92
309.076	3.92
309.445	3.9
309.815	3.77
310.184	3.76
310.554	3.7
310.923	3.73
311.293	3.75
311.662	3.76
312.031	3.73
312.401	3.73
312.77	3.7
313.139	3.69
313.508	3.71
313.877	3.65
314.246	3.64
314.616	3.61
314.985	3.56
315.353	3.56
315.722	3.56
316.091	3.55
316.46	3.55
316.829	3.57
317.198	3.59
317.567	3.73
317.935	3.73
318.304	3.78
318.672	3.8
319.041	3.82
319.41	3.83
319.778	3.86
320.147	3.88
320.515	3.87
320.883	3.86
321.252	3.79
321.62	3.84
321.988	3.86
322.357	3.86
322.725	3.94
323.093	3.93
323.461	3.93
323.829	3.93
324.197	3.91
324.565	3.91
324.933	3.92
325.301	3.91
325.669	3.91
326.037	3.92
326.405	3.87
326.772	3.87
327.14	3.85
327.508	3.83
327.875	3.83
328.243	3.84
328.61	3.8
328.978	3.82
329.346	3.82
329.713	3.79
330.08	3.8
330.448	3.78
330.815	3.75
331.182	3.76
331.55	3.76
331.917	3.77
332.284	3.77
332.651	3.78
333.018	3.78
333.385	3.8
333.752	3.82
334.119	3.82
334.486	3.82
334.853	3.79
335.22	3.78
335.587	3.77
335.954	3.77
336.32	3.79
336.687	3.78
337.054	3.76
337.42	3.78
337.787	3.77
338.153	3.8
338.52	3.83
338.886	3.86
339.253	3.85
339.619	3.83
339.986	3.8
340.352	3.79
340.718	3.8
341.084	3.8
341.451	3.79
341.817	3.78
342.183	3.77
342.549	3.81
342.915	3.8
343.281	3.83
343.647	3.83
344.013	3.86
344.379	3.86
344.745	3.87
345.11	3.87
345.476	3.89
345.842	3.9
346.208	3.87
346.573	3.87
346.939	3.89
347.304	3.89
347.67	3.89
348.035	3.9
348.401	3.88
348.766	3.9
349.132	3.9
349.497	3.92
349.862	3.93
350.228	3.94
350.593	3.95
350.958	3.95
351.323	3.93
351.688	3.94
352.053	3.94
352.418	3.93
352.783	3.94
353.148	3.94
353.513	3.92
353.878	3.93
354.243	3.92
354.608	3.93
354.972	3.93
355.337	3.94
355.702	3.92
356.066	3.92
356.431	3.92
356.795	3.92
357.16	3.9
357.524	3.89
357.889	3.89
358.253	3.89
358.618	3.89
358.982	3.9
359.346	3.91
359.71	3.91
360.075	3.91
360.439	3.92
360.803	3.91
361.167	3.91
361.531	3.92
361.895	3.91
362.259	3.9
362.623	3.91
362.987	3.89
363.351	3.9
363.714	3.9
364.078	3.9
364.442	3.91
364.806	3.92
365.169	3.9
365.533	3.89
365.896	3.89
366.26	3.89
366.623	3.88
366.987	3.87
367.35	3.89
367.714	3.89
368.077	3.89
368.44	3.89
368.803	3.89
369.167	3.89
369.53	3.89
369.893	3.91
370.256	3.92
370.619	3.92
370.982	3.92
371.345	3.91
371.708	3.92
372.071	3.92
372.434	3.93
372.797	3.95
373.159	3.96
373.522	3.96
373.885	3.95
374.247	3.94
374.61	3.94
374.973	3.93
375.335	3.92
375.698	3.92
376.06	3.92
376.423	3.92
376.785	3.92
377.147	3.92
377.51	3.92
377.872	3.92
378.234	3.93
378.596	3.94
378.958	3.94
379.321	3.94
379.683	3.95
380.045	3.94
380.407	3.95
380.769	3.94
381.13	3.95
381.492	3.96
381.854	3.96
382.216	3.96
382.578	3.95
382.939	3.96
383.301	3.96
383.663	3.97
384.024	3.97
384.386	3.97
384.747	3.97
385.109	3.95
385.47	3.96
385.832	3.97
386.193	3.97
386.554	3.96
386.916	3.96
387.277	3.96
387.638	3.98
387.999	3.98
388.36	3.98
388.721	3.98
389.082	3.98
389.443	3.98
389.804	3.98
390.165	3.99
390.526	3.99
390.887	3.99
391.248	3.98
391.609	3.98
391.969	3.98
392.33	4
392.691	4
393.051	4
393.412	3.99
393.772	3.99
394.133	4
394.493	3.99
394.854	3.99
395.214	3.99
395.574	3.99
395.935	3.98
396.295	3.98
396.655	3.99
397.015	3.99
397.376	3.98
397.736	3.99
398.096	3.98
398.456	3.98
398.816	4
399.176	3.99
399.535	3.99
399.895	4
400.255	3.99
400.615	4
400.975	4
401.334	4.01
401.694	4.01
402.054	4.01
402.413	3.99
402.773	3.99
403.132	4
403.492	4
403.851	4.01
404.211	4.02
404.57	4.03
404.929	4.03
405.288	4.03
405.648	4.04
406.007	4.05
406.366	4.06
406.725	4.07
407.084	4.06
407.443	4.07
407.802	4.06
408.161	4.06
408.52	4.06
408.879	4.07
409.238	4.07
409.596	4.07
409.955	4.09
410.314	4.09
410.673	4.09
411.031	4.1
411.39	4.11
411.748	4.12
412.107	4.13
412.465	4.14
412.824	4.17
413.182	4.19
413.54	4.22
413.899	4.24
414.257	4.28
414.615	4.32
414.974	4.35
415.332	4.4
415.69	4.44
416.048	4.47
416.406	4.52
416.764	4.55
417.122	4.59
417.48	4.63
417.838	4.66
418.195	4.69
418.553	4.71
418.911	4.72
419.269	4.73
419.626	4.73
419.984	4.73
420.342	4.71
420.699	4.69
421.057	4.67
421.414	4.66
421.772	4.65
422.129	4.64
422.486	4.64
422.844	4.64
423.201	4.64
423.558	4.65
423.915	4.65
424.273	4.64
424.63	4.65
424.987	4.65
425.344	4.65
425.701	4.65
426.058	4.65
426.415	4.66
426.772	4.65
427.128	4.65
427.485	4.64
427.842	4.64
428.199	4.62
428.555	4.61
428.912	4.59
429.269	4.57
429.625	4.55
429.982	4.52
430.338	4.49
430.695	4.48
431.051	4.44
431.407	4.42
431.764	4.4
432.12	4.38
432.476	4.37
432.832	4.36
433.189	4.37
433.545	4.37
433.901	4.39
434.257	4.41
434.613	4.44
434.969	4.47
435.325	4.5
435.681	4.55
436.036	4.56
436.392	4.59
436.748	4.6
437.104	4.6
437.459	4.61
437.815	4.63
438.171	4.65
438.526	4.68
438.882	4.71
439.237	4.75
439.593	4.79
439.948	4.82
440.304	4.86
440.659	4.89
441.014	4.91
441.369	4.94
441.725	4.95
442.08	4.98
442.435	4.99
442.79	4.99
443.145	5
443.5	5
443.855	5
444.21	5
444.565	5
444.92	4.99
445.275	4.98
445.629	4.97
445.984	4.96
446.339	4.95
446.693	4.95
447.048	4.93
447.403	4.92
447.757	4.9
448.112	4.88
448.466	4.86
448.82	4.84
449.175	4.82
449.529	4.8
449.883	4.79
450.238	4.76
450.592	4.76
450.946	4.75
451.3	4.76
451.654	4.77
452.008	4.77
452.362	4.78
452.716	4.79
453.07	4.79
453.424	4.79
453.778	4.78
454.132	4.77
454.486	4.76
454.839	4.74
455.193	4.71
455.547	4.7
455.9	4.67
456.254	4.64
456.607	4.61
456.961	4.59
457.314	4.57
457.668	4.56
458.021	4.55
458.375	4.55
458.728	4.55
459.081	4.55
459.434	4.56
459.787	4.57
460.141	4.58
460.494	4.59
460.847	4.6
461.2	4.6
461.553	4.61
461.906	4.61
462.259	4.62
462.611	4.62
462.964	4.63
463.317	4.63
463.67	4.64
464.022	4.64
464.375	4.64
464.728	4.64
465.08	4.64
465.433	4.64
465.785	4.63
466.138	4.62
466.49	4.6
466.843	4.57
467.195	4.55
467.547	4.53
467.899	4.5
468.252	4.47
468.604	4.44
468.956	4.42
469.308	4.4
469.66	4.4
470.012	4.39
470.364	4.39
470.716	4.39
471.068	4.41
471.42	4.43
471.772	4.45
472.123	4.46
472.475	4.48
472.827	4.49
473.178	4.5
473.53	4.5
473.882	4.52
474.233	4.54
474.585	4.57
474.936	4.64
475.288	4.73
475.639	4.85
475.99	5
476.342	5.17
476.693	5.34
477.044	5.52
477.395	5.7
477.746	5.89
478.097	6.07
478.448	6.27
478.8	6.45
479.15	6.62
479.501	6.78
479.852	6.93
480.203	7.06
480.554	7.19
480.905	7.32
481.255	7.44
481.606	7.56
481.957	7.66
482.307	7.76
482.658	7.86
483.009	7.96
483.359	8.05
483.709	8.14
484.06	8.22
484.41	8.31
484.761	8.38
485.111	8.46
485.461	8.54
485.811	8.6
486.162	8.67
486.512	8.72
486.862	8.76
487.212	8.79
487.562	8.81
487.912	8.83
488.262	8.83
488.612	8.83
488.961	8.81
489.311	8.77
489.661	8.69
490.011	8.59
490.36	8.48
490.71	8.33
491.06	8.18
491.409	8.03
491.759	7.87
492.108	7.7
492.458	7.53
492.807	7.35
493.157	7.17
493.506	6.99
493.855	6.83
494.204	6.67
494.554	6.53
494.903	6.4
495.252	6.26
495.601	6.14
495.95	6.01
496.299	5.9
496.648	5.79
496.997	5.68
497.346	5.58
497.695	5.48
498.043	5.39
498.392	5.31
498.741	5.22
499.09	5.13
499.438	5.05
499.787	4.97
500.135	4.9
500.484	4.83
500.832	4.78
501.181	4.74
501.529	4.7
501.878	4.68
502.226	4.67
502.574	4.66
502.923	4.65
503.271	4.64
503.619	4.65
503.967	4.64
504.315	4.64
504.663	4.63
505.011	4.62
505.359	4.62
505.707	4.61
506.055	4.6
506.403	4.6
506.751	4.6
507.098	4.6
507.446	4.6
507.794	4.61
508.141	4.62
508.489	4.63
508.837	4.65
509.184	4.66
509.531	4.67
509.879	4.68
510.226	4.69
510.574	4.71
510.921	4.72
511.268	4.73
511.616	4.75
511.963	4.77
512.31	4.79
512.657	4.8
513.004	4.82
513.351	4.84
513.698	4.84
514.045	4.85
514.392	4.85
514.739	4.85
515.086	4.85
515.432	4.84
515.779	4.84
516.126	4.84
516.473	4.84
516.819	4.84
517.166	4.85
517.512	4.86
517.859	4.87
518.205	4.89
518.552	4.91
518.898	4.95
519.245	4.99
519.591	5.04
519.937	5.12
520.283	5.21
520.629	5.32
520.976	5.43
521.322	5.56
521.668	5.68
522.014	5.8
522.36	5.92
522.706	6.04
523.052	6.15
523.398	6.26
523.743	6.36
524.089	6.44
524.435	6.51
524.781	6.58
525.126	6.64
525.472	6.7
525.817	6.76
526.163	6.81
526.509	6.86
526.854	6.91
527.199	6.96
527.545	7
527.89	7.05
528.235	7.1
528.581	7.15
528.926	7.19
529.271	7.24
529.616	7.28
529.961	7.31
530.306	7.33
530.651	7.36
530.996	7.38
531.341	7.39
531.686	7.39
532.031	7.39
532.376	7.39
532.721	7.39
533.065	7.39
533.41	7.39
533.755	7.39
534.099	7.35
534.444	7.32
534.788	7.29
535.133	7.25
535.477	7.2
535.822	7.15
536.166	7.09
536.51	7.02
536.855	6.93
537.199	6.85
537.543	6.77
537.887	6.69
538.231	6.62
538.576	6.57
538.92	6.5
539.264	6.44
539.608	6.38
539.951	6.32
540.295	6.26
540.639	6.19
540.983	6.12
541.327	6.07
541.671	6
542.014	5.94
542.358	5.88
542.701	5.84
543.045	5.81
543.389	5.78
543.732	5.75
544.075	5.74
544.419	5.72
544.762	5.69
545.105	5.69
545.449	5.68
545.792	5.68
546.135	5.67
546.478	5.65
546.821	5.63
547.165	5.6
547.508	5.55
547.851	5.5
548.194	5.45
548.536	5.38
548.879	5.3
549.222	5.23
549.565	5.15
549.908	5.08
550.25	5.01
550.593	4.95
550.936	4.9
551.278	4.86
551.621	4.83
551.963	4.8
552.306	4.78
552.648	4.76
552.991	4.74
553.333	4.73
553.675	4.72
554.017	4.71
554.36	4.71
554.702	4.72
555.044	4.73
555.386	4.75
555.728	4.76
556.07	4.77
556.412	4.78
556.754	4.79
557.096	4.78
557.438	4.79
557.78	4.79
558.121	4.78
558.463	4.79
558.805	4.78
559.147	4.79
559.488	4.78
559.83	4.79
560.171	4.8
560.513	4.79
560.854	4.79
561.196	4.79
561.537	4.79
561.878	4.8
562.22	4.8
562.561	4.8
562.902	4.81
563.243	4.82
563.584	4.82
563.925	4.82
564.266	4.82
564.607	4.83
564.948	4.84
565.289	4.84
565.63	4.84
565.971	4.84
566.312	4.85
566.653	4.85
566.993	4.85
567.334	4.85
567.675	4.86
568.015	4.87
568.356	4.88
568.696	4.88
569.037	4.88
569.377	4.89
569.718	4.89
570.058	4.89
570.398	4.89
570.739	4.89
571.079	4.89
571.419	4.89
571.759	4.89
572.099	4.89
572.439	4.89
572.779	4.9
573.119	4.9
573.459	4.89
573.799	4.89
574.139	4.89
574.479	4.9
574.819	4.9
575.158	4.89
575.498	4.89
575.838	4.89
576.177	4.89
576.517	4.89
576.856	4.89
577.196	4.89
577.535	4.88
577.875	4.88
578.214	4.87
578.553	4.87
578.893	4.86
579.232	4.87
579.571	4.86
579.91	4.85
580.25	4.85
580.589	4.85
580.928	4.84
581.267	4.84
581.606	4.83
581.945	4.83
582.283	4.83
582.622	4.83
582.961	4.83
583.3	4.83
583.639	4.83
583.977	4.83
584.316	4.83
584.654	4.83
584.993	4.83
585.332	4.83
585.67	4.83
586.008	4.83
586.347	4.83
586.685	4.84
587.024	4.84
587.362	4.84
587.7	4.85
588.038	4.85
588.376	4.85
588.715	4.85
589.053	4.86
589.391	4.86
589.729	4.86
590.067	4.86
590.404	4.86
590.742	4.87
591.08	4.87
591.418	4.87
591.756	4.88
592.093	4.89
592.431	4.9
592.769	4.91
593.106	4.91
593.444	4.92
593.781	4.92
594.119	4.92
594.456	4.92
594.793	4.92
595.131	4.93
595.468	4.93
595.805	4.92
596.143	4.92
596.48	4.92
596.817	4.93
597.154	4.93
597.491	4.93
597.828	4.94
598.165	4.94
598.502	4.95
598.839	4.95
599.176	4.95
599.512	4.95
599.849	4.96
600.186	4.96
600.523	4.97
600.859	4.97
601.196	4.97
601.532	4.98
601.869	4.98
602.205	4.98
602.542	4.99
602.878	4.99
603.215	4.99
603.551	4.99
603.887	4.99
604.223	5
604.56	5
604.896	5
605.232	5
605.568	5
605.904	5
606.24	5
606.576	5
606.912	5.01
607.248	5
607.583	5.01
607.919	5
608.255	5
608.591	5
608.926	5
609.262	5
609.597	5
609.933	5
610.268	5.02
610.604	5.02
610.939	5.02
611.275	5.01
611.61	5.01
611.945	5.01
612.281	5.01
612.616	5
612.951	4.99
613.286	4.99
613.621	4.98
613.956	4.97
614.291	4.98
614.626	4.97
614.961	4.98
615.296	4.99
615.631	4.98
615.966	4.98
616.3	4.98
616.635	4.98
616.97	4.97
617.304	4.97
617.639	4.96
617.973	4.96
618.308	4.96
618.642	4.96
618.977	4.95
619.311	4.95
619.646	4.95
619.98	4.96
620.314	4.95
620.648	4.97
620.983	4.97
621.317	4.97
621.651	4.98
621.985	4.98
622.319	4.98
622.653	4.98
622.987	4.99
623.321	4.98
623.655	4.99
623.988	5
624.322	4.99
624.656	5
624.99	5
625.323	5.01
625.657	5.01
625.99	5.03
626.324	5.04
626.657	5.04
626.991	5.05
627.324	5.04
627.658	5.05
627.991	5.04
628.324	5.05
628.657	5.04
628.991	5.05
629.324	5.06
629.657	5.07
629.99	5.07
630.323	5.08
630.656	5.07
630.989	5.07
631.322	5.08
631.655	5.07
631.987	5.07
632.32	5.08
632.653	5.08
632.986	5.09
633.318	5.08
633.651	5.08
633.984	5.08
634.316	5.09
634.649	5.09
634.981	5.1
635.313	5.09
635.646	5.08
635.978	5.08
636.31	5.07
636.643	5.07
636.975	5.07
637.307	5.07
637.639	5.07
637.971	5.08
638.303	5.09
638.635	5.09
638.967	5.09
639.299	5.09
639.631	5.09
639.963	5.11
640.295	5.11
640.626	5.13
640.958	5.13
641.29	5.13
641.621	5.14
641.953	5.14
642.285	5.15
642.616	5.16
642.948	5.15
643.279	5.16
643.61	5.16
643.942	5.16
644.273	5.16
644.604	5.17
644.936	5.17
645.267	5.18
645.598	5.18
645.929	5.18
646.26	5.19
646.591	5.19
646.922	5.19
647.253	5.19
647.584	5.19
647.915	5.2
648.245	5.2
648.576	5.21
648.907	5.21
649.238	5.21
649.568	5.2
649.899	5.2
650.229	5.22
650.56	5.23
650.89	5.25
651.221	5.24
651.551	5.25
651.882	5.25
652.212	5.25
652.542	5.24
652.872	5.25
653.203	5.26
653.533	5.26
653.863	5.25
654.193	5.24
654.523	5.25
654.853	5.25
655.183	5.25
655.513	5.25
655.843	5.26
656.172	5.27
656.502	5.28
656.832	5.26
657.162	5.27
657.491	5.27
657.821	5.27
658.15	5.26
658.48	5.25
658.809	5.24
659.139	5.25
659.468	5.27
659.798	5.27
660.127	5.27
660.456	5.3
660.785	5.31
661.115	5.32
661.444	5.32
661.773	5.32
662.102	5.33
662.431	5.34
662.76	5.35
663.089	5.35
663.418	5.36
663.747	5.36
664.076	5.36
664.404	5.36
664.733	5.37
665.062	5.38
665.39	5.38
665.719	5.39
666.048	5.38
666.376	5.38
666.705	5.37
667.033	5.35
667.362	5.35
667.69	5.36
668.018	5.35
668.347	5.35
668.675	5.33
669.003	5.33
669.331	5.33
669.659	5.33
669.987	5.34
670.315	5.34
670.643	5.36
670.971	5.36
671.299	5.37
671.627	5.37
671.955	5.37
672.283	5.36
672.61	5.37
672.938	5.38
673.266	5.39
673.593	5.38
673.921	5.39
674.249	5.4
674.576	5.41
674.904	5.43
675.231	5.44
675.558	5.46
675.886	5.48
676.213	5.47
676.54	5.48
676.867	5.48
677.195	5.49
677.522	5.49
677.849	5.51
678.176	5.53
678.503	5.54
678.83	5.55
679.157	5.56
679.484	5.56
679.81	5.55
680.137	5.55
680.464	5.56
680.791	5.56
681.117	5.54
681.444	5.54
681.771	5.55
682.097	5.55
682.424	5.55
682.75	5.54
683.077	5.55
683.403	5.55
683.729	5.54
684.056	5.54
684.382	5.54
684.708	5.53
685.034	5.55
685.36	5.55
685.686	5.57
686.012	5.58
686.339	5.6
686.664	5.61
686.99	5.62
687.316	5.63
687.642	5.65
687.968	5.67
688.294	5.68
688.619	5.67
688.945	5.67
689.271	5.66
689.596	5.67
689.922	5.69
690.247	5.7
690.573	5.71
690.898	5.74
691.224	5.73
691.549	5.73
691.874	5.72
692.2	5.73
692.525	5.74
692.85	5.73
693.175	5.74
693.5	5.76
693.825	5.76
694.15	5.75
694.475	5.77
694.8	5.77
695.125	5.78
695.45	5.81
695.775	5.81
696.099	5.81
696.424	5.81
696.749	5.81
697.073	5.83
697.398	5.81
697.723	5.81
698.047	5.83
698.372	5.84
698.696	5.82
699.02	5.81
699.345	5.81
699.669	5.81
699.993	5.81
700.318	5.8
700.642	5.79
700.966	5.79
701.29	5.79
701.614	5.78
701.938	5.78
702.262	5.79
702.586	5.8
702.91	5.81
703.234	5.81
703.557	5.8
703.881	5.8
704.205	5.82
704.529	5.84
704.852	5.83
705.176	5.85
705.499	5.88
705.823	5.88
706.146	5.88
706.47	5.89
706.793	5.9
707.117	6.04
707.44	6.05
707.763	6.02
708.086	6.03
708.409	6.02
708.733	6.01
709.056	6.01
709.379	6
709.702	6.03
710.025	6.03
710.348	5.88
710.671	5.88
710.993	5.89
711.316	5.89
711.639	5.91
711.962	5.91
712.284	5.92
712.607	5.93
712.93	5.94
713.252	5.95
713.575	5.93
713.897	5.92
714.22	5.92
714.542	5.95
714.864	6.02
715.187	6.05
715.509	6.06
715.831	6.05
716.153	6.05
716.475	6.04
716.798	6.02
717.12	6.21
717.442	6.23
717.764	6.2
718.085	6.12
718.407	6.12
718.729	6.1
719.051	6.11
719.373	6.13
719.695	6.12
720.016	6.1
720.338	5.98
720.659	6.01
720.981	6.03
721.302	6.03
721.624	6.04
721.945	6.03
722.267	6.02
722.588	6.03
722.909	6.05
723.231	6.1
723.552	6.1
723.873	6.14
724.194	6.13
724.515	6.13
724.836	6.25
725.157	6.24
725.478	6.25
725.799	6.27
726.12	6.29
726.441	6.29
726.762	6.34
727.083	6.32
727.403	6.33
727.724	6.31
728.045	6.24
728.365	6.26
728.686	6.3
729.006	6.31
729.327	6.31
729.647	6.31
729.967	6.31
730.288	6.32
730.608	6.32
730.928	6.35
731.249	6.34
731.569	6.36
731.889	6.35
732.209	6.38
732.529	6.39
732.849	6.42
733.169	6.45
733.489	6.47
733.809	6.48
734.129	6.48
734.448	6.51
734.768	6.52
735.088	6.53
735.408	6.56
735.727	6.57
736.047	6.6
736.366	6.58
736.686	6.59
737.005	6.59
737.325	6.57
737.644	6.57
737.963	6.58
738.283	6.6
738.602	6.59
738.921	6.6
739.24	6.6
739.56	6.6
739.879	6.6
740.198	6.62
740.517	6.62
740.836	6.63
741.155	6.64
741.473	6.67
741.792	6.7
742.111	6.7
742.43	6.73
742.748	6.72
743.067	6.72
743.386	6.74
743.704	6.75
744.023	6.78
744.341	6.8
744.66	6.82
744.978	6.78
745.297	6.78
745.615	6.75
745.933	6.76
746.252	6.74
746.57	6.67
746.888	6.66
747.206	6.67
747.524	6.67
747.842	6.7
748.16	6.7
748.478	6.68
748.796	6.66
749.114	6.63
749.432	6.63
749.749	6.66
750.067	6.68
750.385	6.69
750.703	6.71
751.02	6.69
751.338	6.69
751.655	6.78
751.973	6.78
752.29	6.77
752.608	6.81
752.925	6.82
753.242	6.91
753.56	6.97
753.877	6.94
754.194	6.99
754.511	6.97
754.828	6.95
755.145	7
755.462	7.01
755.779	7.02
756.096	7.05
756.413	7.05
756.73	7.01
757.047	6.99
757.364	7
757.68	7.05
757.997	7.06
758.314	7.08
758.63	7.1
758.947	7.14
759.264	7.13
759.58	7.14
759.896	7.13
760.213	7.16
760.529	7.16
760.846	7.11
761.162	7.14
761.478	7.12
761.794	7.13
762.11	7.13
762.426	7.17
762.743	7.15
763.059	7.23
763.375	7.27
763.69	7.27
764.006	7.3
764.322	7.31
764.638	7.29
764.954	7.33
765.27	7.35
765.585	7.34
765.901	7.36
766.216	7.21
766.532	7.17
766.848	7.16
767.163	7.2
767.478	7.27
767.794	7.29
768.109	7.29
768.424	7.29
768.74	7.31
769.055	7.3
769.37	7.32
769.685	7.33
770	7.35
770.315	7.38
770.63	7.26
770.945	7.19
771.26	7.16
771.575	7.14
771.89	7.1
772.205	7.11
772.52	7.11
772.834	7.28
773.149	7.32
773.464	7.27
773.778	7.27
774.093	7.3
774.407	7.35
774.722	7.34
775.036	7.32
775.351	7.29
775.665	7.27
775.979	7.08
776.293	7.06
776.608	7.07
776.922	7.04
777.236	7.19
777.55	7.27
777.864	7.27
778.178	7.3
778.492	7.28
778.806	7.26
779.12	7.32
779.434	7.32
779.747	7.28
780.061	7.4
780.375	7.28
780.689	7.2
781.002	7.21
781.316	7.24
781.629	7.32
781.943	7.39
782.256	7.42
782.57	7.48
782.883	7.47
783.196	7.43
783.51	7.5
783.823	7.56
784.136	7.51
784.449	7.57
784.762	7.61
785.075	7.71
785.388	7.69
785.701	7.69
786.014	7.68
786.327	7.72
786.64	7.68
786.953	7.7
787.266	7.73
787.578	7.73
787.891	7.79
788.204	7.79
788.516	7.84
788.829	7.92
789.141	7.89
789.454	7.9
789.766	7.93
790.079	7.87
790.391	7.86
790.703	7.98
791.016	7.84
791.328	7.85
791.64	7.88
791.952	7.93
792.264	7.95
792.576	8
792.888	7.99
793.2	8.02
793.512	8.08
793.824	8.01
794.136	7.96
794.448	8.01
794.76	8.02
795.071	8.1
795.383	8.09
795.695	8.23
796.006	8.31
796.318	8.3
796.629	8.32
796.941	8.35
797.252	8.34
797.564	8.4
797.875	8.28
798.186	8.24
798.497	8.23
798.809	8.1
799.12	8.07
799.431	8.05
799.742	8.03
800.053	7.96
800.364	8.06
800.675	8.11
800.986	8.11
801.297	8.18
801.608	8.15
801.918	8.17
802.229	8.21
802.54	8.21
802.851	8.22
803.161	8.22
803.472	8.2
803.782	8.16
804.093	8.18
804.403	8.05
804.714	8.15
805.024	8.17
805.334	8.31
805.645	8.29
805.955	8.34
806.265	8.31
806.575	8.41
806.885	8.35
807.195	8.35
807.505	8.33
807.815	8.24
808.125	8.32
808.435	8.26
808.745	8.21
809.055	8.26
809.365	8.35
809.674	8.39
809.984	8.41
810.294	8.44
810.603	8.45
810.913	8.75
811.222	8.73
811.532	8.8
811.841	8.87
812.151	8.96
812.46	8.95
812.769	9.01
813.079	9.09
813.388	9.11
813.697	9.09
814.006	9.02
814.315	9.11
814.624	9.09
814.933	9
815.242	8.93
815.551	8.97
815.86	8.93
816.169	8.95
816.478	9
816.786	8.97
817.095	9.03
817.404	9.02
817.712	9.07
818.021	8.99
818.33	9.01
818.638	9.07
818.947	9.04
819.255	9.04
819.563	9.08
819.872	9.08
820.18	9.1
820.488	9.11
820.796	9.06
821.105	9.05
821.413	9.08
821.721	9.12
822.029	9.12
822.337	9.15
822.645	9.14
822.953	9.13
823.26	9.17
823.568	9.17
823.876	9.13
824.184	9.13
824.491	9.11
824.799	9.11
825.107	9.14
825.414	9.16
825.722	9.15
826.029	9.13
826.337	9.13
826.644	9.14
826.951	9.14
827.259	9.17
827.566	9.21
827.873	9.24
828.18	9.2
828.488	9.21
828.795	9.2
829.102	9.21
829.409	9.26
829.716	9.26
830.023	9.29
830.329	9.3
830.636	9.33
830.943	9.42
831.25	9.42
831.557	9.44
831.863	9.46
832.17	9.47
832.476	9.48
832.783	9.46
833.089	9.51
833.396	9.5
833.702	9.49
834.009	9.44
834.315	9.41
834.621	9.49
834.928	9.49
835.234	9.55
835.54	9.53
835.846	9.55
836.152	9.55
836.458	9.59
836.764	9.57
837.07	9.6
837.376	9.5
837.682	9.4
837.988	9.44
838.293	9.31
838.599	9.35
838.905	9.35
839.211	9.41
839.516	9.46
839.822	9.57
840.127	9.49
840.433	9.51
840.738	9.52
841.044	9.56
841.349	9.63
841.654	9.68
841.959	9.68
842.265	9.62
842.57	9.58
842.875	9.57
843.18	9.72
843.485	9.74
843.79	9.9
844.095	10.07
844.4	9.85
844.705	9.99
845.01	9.96
845.315	9.95
845.619	9.77
845.924	9.6
846.229	9.45
846.533	9.46
846.838	9.45
847.142	9.29
847.447	9.23
847.751	8.99
848.056	9.06
848.36	9.03
848.664	8.95
848.969	8.82
849.273	8.66
849.577	8.55
849.881	8.34
850.185	8.25
850.489	8.53
850.794	8.73
851.097	8.65
851.401	8.59
851.705	8.61
852.009	8.7
852.313	8.6
852.617	8.9
852.92	8.88
853.224	8.89
853.528	8.78
853.831	8.81
854.135	8.71
854.438	8.68
854.742	8.86
855.045	9.04
855.349	9.17
855.652	9.37
855.955	9.36
856.259	9.35
856.562	9.59
856.865	9.57
857.168	9.53
857.471	9.51
857.774	9.52
858.077	9.22
858.38	9.45
858.683	9.52
858.986	9.53
859.289	9.8
859.592	9.9
859.894	10.4
860.197	10.55
860.5	10.61
860.802	10.7
861.105	10.6
861.407	10.88
861.71	10.98
862.012	10.99
862.315	11.18
862.617	11.23
862.919	10.77
863.222	10.88
863.524	10.98
863.826	11.28
864.128	11.55
864.43	11.63
864.732	11.57
865.034	11.59
865.336	11.79
865.638	11.6
865.94	11.44
866.242	11.36
866.544	10.9
866.846	11.29
867.147	10.96
867.449	10.71
867.751	10.68
868.052	10.72
868.354	10.57
868.655	10.61
868.957	10.63
869.258	10.59
869.56	10.59
869.861	10.86
870.162	10.58
870.463	10.59
870.765	10.57
871.066	10.76
871.367	10.66
871.668	10.69
871.969	10.73
872.27	10.57
872.571	10.5
872.872	10.83
873.173	10.66
873.473	11.01
873.774	11.09
874.075	11.03
874.376	11.15
874.676	11.23
874.977	11.12
875.277	11.01
875.578	10.95
875.878	10.68
876.179	10.7
876.479	10.36
876.78	10.22
877.08	10.32
877.38	10.34
877.68	10.21
877.981	10.22
878.281	10.12
878.581	10.18
