Data from UWBM79812_Reflection_00012.txt Node
Date: Sun May 02 13:58:35 EDT 2021
User: vgr7
Spectrometer: USB2G7710
Scans to average: 10
Trigger mode: 4
Integration Time (sec): 1.000000E-1
Electric dark correction enabled: true
Boxcar width: 20
XAxis mode: Wavelengths
Number of Pixels in Spectrum: 2048
>>>>>Begin Spectral Data<<<<<
177.721	72.64
178.105	97.71
178.488	139.97
178.871	163.2
179.254	113.36
179.636	76.69
180.019	51.53
180.402	36.51
180.785	37.14
181.168	34.75
181.55	37.32
181.933	40.75
182.316	35.9
182.698	28.08
183.081	23.61
183.463	17.01
183.846	16.48
184.228	17.36
184.611	16.33
184.993	15.76
185.376	16.52
185.758	18.19
186.14	20.67
186.522	20.69
186.904	19.16
187.287	21.28
187.669	22.46
188.051	20.18
188.433	20.52
188.815	18.18
189.197	18.1
189.579	18.47
189.961	16.54
190.342	14.46
190.724	16.07
191.106	16.19
191.488	14.16
191.869	11.79
192.251	9.53
192.633	8.93
193.014	8.96
193.396	5.38
193.777	7.22
194.159	8.36
194.54	7.71
194.922	7.24
195.303	7.12
195.684	6.49
196.065	6.36
196.447	7.22
196.828	7.05
197.209	6.03
197.59	3.03
197.971	3.56
198.352	5.48
198.733	8
199.114	10.12
199.495	10.87
199.876	10.7
200.257	9.87
200.638	8.73
201.018	9.84
201.399	10.03
201.78	10.62
202.16	10.16
202.541	9.74
202.922	8
203.302	7.52
203.683	8.99
204.063	9.85
204.444	9.34
204.824	8.54
205.204	7.77
205.585	9.49
205.965	10.77
206.345	10.28
206.725	10.99
207.106	12.02
207.486	12.23
207.866	13.2
208.246	12.33
208.626	12.2
209.006	13.14
209.386	11.87
209.766	10.1
210.145	8.59
210.525	8.84
210.905	10.12
211.285	10.49
211.664	10.79
212.044	9.34
212.424	9.1
212.803	9.18
213.183	9.84
213.562	9.78
213.942	8.27
214.321	5.92
214.701	4.81
215.08	4.59
215.459	4.39
215.838	4.45
216.218	5.49
216.597	3.88
216.976	3.98
217.355	2.97
217.734	3.28
218.113	3.74
218.492	4.09
218.871	3.43
219.25	2.85
219.629	2.45
220.008	2.96
220.387	2.3
220.766	3.19
221.144	4.05
221.523	4.37
221.902	4.79
222.28	4.38
222.659	5.14
223.037	4.93
223.416	5.49
223.794	6.27
224.173	6.05
224.551	4.61
224.929	5.08
225.308	5.29
225.686	5.35
226.064	5.09
226.442	4.89
226.821	5.43
227.199	5.49
227.577	5.8
227.955	5.77
228.333	5.27
228.711	4.77
229.089	4.06
229.467	4.2
229.845	4.46
230.222	4.64
230.6	4.61
230.978	4.41
231.356	4.63
231.733	4.49
232.111	4.58
232.488	4.72
232.866	4.72
233.243	4.75
233.621	4.65
233.998	4.56
234.376	4.63
234.753	4.39
235.13	4.35
235.508	4.44
235.885	4.46
236.262	4.38
236.639	4.23
237.016	4.2
237.393	4.19
237.77	4.19
238.147	4.08
238.524	4.09
238.901	3.99
239.278	3.98
239.655	4.03
240.032	4.12
240.409	4.09
240.785	4.16
241.162	4.2
241.539	4.15
241.915	4.2
242.292	4.15
242.668	4.17
243.045	4.14
243.421	4.15
243.798	4.19
244.174	4.25
244.551	4.31
244.927	4.32
245.303	4.33
245.679	4.33
246.056	4.3
246.432	4.3
246.808	4.27
247.184	4.31
247.56	4.31
247.936	4.27
248.312	4.26
248.688	4.23
249.064	4.25
249.44	4.26
249.815	4.25
250.191	4.23
250.567	4.25
250.943	4.21
251.318	4.19
251.694	4.2
252.069	4.15
252.445	4.14
252.82	4.12
253.196	4.08
253.571	4.08
253.947	4.07
254.322	4.06
254.697	4.05
255.073	4.03
255.448	4.04
255.823	4.01
256.198	3.97
256.573	3.96
256.948	3.98
257.323	3.95
257.698	3.93
258.073	3.9
258.448	3.87
258.823	3.85
259.198	3.83
259.573	3.8
259.948	3.79
260.322	3.77
260.697	3.73
261.072	3.72
261.446	3.71
261.821	3.7
262.195	3.69
262.57	3.65
262.944	3.64
263.319	3.67
263.693	3.66
264.067	3.67
264.442	3.64
264.816	3.63
265.19	3.63
265.564	3.66
265.938	3.63
266.313	3.63
266.687	3.63
267.061	3.61
267.435	3.63
267.809	3.62
268.183	3.62
268.556	3.63
268.93	3.63
269.304	3.63
269.678	3.63
270.051	3.6
270.425	3.59
270.799	3.58
271.172	3.59
271.546	3.59
271.919	3.6
272.293	3.6
272.666	3.61
273.04	3.63
273.413	3.65
273.787	3.67
274.16	3.67
274.533	3.68
274.906	3.69
275.279	3.69
275.653	3.69
276.026	3.7
276.399	3.7
276.772	3.71
277.145	3.7
277.518	3.71
277.891	3.71
278.263	3.68
278.636	3.69
279.009	3.7
279.382	3.7
279.755	3.7
280.127	3.7
280.5	3.71
280.872	3.71
281.245	3.72
281.617	3.72
281.99	3.72
282.362	3.72
282.735	3.72
283.107	3.72
283.479	3.7
283.852	3.71
284.224	3.7
284.596	3.7
284.968	3.69
285.34	3.71
285.713	3.7
286.085	3.7
286.457	3.7
286.829	3.71
287.201	3.7
287.572	3.69
287.944	3.69
288.316	3.67
288.688	3.67
289.06	3.67
289.431	3.69
289.803	3.71
290.175	3.73
290.546	3.74
290.918	3.75
291.289	3.76
291.661	3.78
292.032	3.79
292.403	3.8
292.775	3.81
293.146	3.82
293.517	3.84
293.889	3.84
294.26	3.86
294.631	3.88
295.002	3.91
295.373	3.91
295.744	3.91
296.115	3.92
296.486	3.95
296.857	3.97
297.228	3.98
297.599	4.01
297.97	4.02
298.34	4.03
298.711	4.06
299.082	4.07
299.452	4.1
299.823	4.11
300.194	4.14
300.564	4.14
300.935	4.18
301.305	4.21
301.676	4.23
302.046	4.25
302.416	4.28
302.787	4.3
303.157	4.32
303.527	4.34
303.897	4.36
304.267	4.38
304.637	4.39
305.008	4.4
305.378	4.41
305.748	4.42
306.117	4.44
306.487	4.48
306.857	4.51
307.227	4.53
307.597	4.56
307.967	4.58
308.336	4.61
308.706	4.63
309.076	4.63
309.445	4.66
309.815	4.66
310.184	4.68
310.554	4.7
310.923	4.73
311.293	4.75
311.662	4.77
312.031	4.79
312.401	4.83
312.77	4.83
313.139	4.85
313.508	4.87
313.877	4.89
314.246	4.92
314.616	4.93
314.985	4.95
315.353	4.97
315.722	5.01
316.091	5.03
316.46	5.04
316.829	5.07
317.198	5.11
317.567	5.14
317.935	5.17
318.304	5.21
318.672	5.24
319.041	5.29
319.41	5.3
319.778	5.34
320.147	5.37
320.515	5.4
320.883	5.42
321.252	5.45
321.62	5.46
321.988	5.48
322.357	5.5
322.725	5.52
323.093	5.54
323.461	5.55
323.829	5.58
324.197	5.63
324.565	5.63
324.933	5.66
325.301	5.68
325.669	5.72
326.037	5.74
326.405	5.75
326.772	5.75
327.14	5.76
327.508	5.77
327.875	5.8
328.243	5.82
328.61	5.84
328.978	5.87
329.346	5.89
329.713	5.92
330.08	5.94
330.448	5.93
330.815	5.94
331.182	5.96
331.55	5.98
331.917	5.98
332.284	5.98
332.651	6
333.018	6.01
333.385	6.02
333.752	6.06
334.119	6.07
334.486	6.09
334.853	6.11
335.22	6.13
335.587	6.16
335.954	6.19
336.32	6.21
336.687	6.21
337.054	6.23
337.42	6.25
337.787	6.26
338.153	6.28
338.52	6.3
338.886	6.3
339.253	6.31
339.619	6.34
339.986	6.35
340.352	6.37
340.718	6.37
341.084	6.38
341.451	6.4
341.817	6.44
342.183	6.45
342.549	6.48
342.915	6.48
343.281	6.49
343.647	6.51
344.013	6.5
344.379	6.51
344.745	6.52
345.11	6.54
345.476	6.57
345.842	6.59
346.208	6.61
346.573	6.62
346.939	6.62
347.304	6.64
347.67	6.66
348.035	6.67
348.401	6.68
348.766	6.68
349.132	6.69
349.497	6.71
349.862	6.72
350.228	6.73
350.593	6.73
350.958	6.73
351.323	6.73
351.688	6.75
352.053	6.77
352.418	6.79
352.783	6.8
353.148	6.8
353.513	6.81
353.878	6.82
354.243	6.84
354.608	6.84
354.972	6.85
355.337	6.85
355.702	6.86
356.066	6.86
356.431	6.86
356.795	6.85
357.16	6.85
357.524	6.86
357.889	6.87
358.253	6.86
358.618	6.86
358.982	6.86
359.346	6.87
359.71	6.87
360.075	6.87
360.439	6.85
360.803	6.84
361.167	6.83
361.531	6.82
361.895	6.82
362.259	6.81
362.623	6.79
362.987	6.79
363.351	6.78
363.714	6.78
364.078	6.77
364.442	6.77
364.806	6.76
365.169	6.75
365.533	6.74
365.896	6.73
366.26	6.72
366.623	6.71
366.987	6.69
367.35	6.68
367.714	6.67
368.077	6.66
368.44	6.64
368.803	6.63
369.167	6.6
369.53	6.57
369.893	6.55
370.256	6.53
370.619	6.51
370.982	6.49
371.345	6.47
371.708	6.46
372.071	6.43
372.434	6.4
372.797	6.38
373.159	6.36
373.522	6.34
373.885	6.33
374.247	6.3
374.61	6.26
374.973	6.24
375.335	6.22
375.698	6.19
376.06	6.18
376.423	6.15
376.785	6.13
377.147	6.11
377.51	6.09
377.872	6.07
378.234	6.04
378.596	6.01
378.958	5.99
379.321	5.96
379.683	5.95
380.045	5.92
380.407	5.9
380.769	5.88
381.13	5.85
381.492	5.83
381.854	5.81
382.216	5.78
382.578	5.76
382.939	5.74
383.301	5.72
383.663	5.7
384.024	5.68
384.386	5.66
384.747	5.64
385.109	5.62
385.47	5.61
385.832	5.58
386.193	5.56
386.554	5.54
386.916	5.53
387.277	5.51
387.638	5.5
387.999	5.48
388.36	5.46
388.721	5.44
389.082	5.42
389.443	5.41
389.804	5.39
390.165	5.38
390.526	5.37
390.887	5.36
391.248	5.35
391.609	5.33
391.969	5.32
392.33	5.3
392.691	5.28
393.051	5.26
393.412	5.25
393.772	5.23
394.133	5.22
394.493	5.19
394.854	5.17
395.214	5.16
395.574	5.14
395.935	5.13
396.295	5.11
396.655	5.09
397.015	5.08
397.376	5.06
397.736	5.05
398.096	5.03
398.456	5.01
398.816	5.01
399.176	4.99
399.535	4.98
399.895	4.97
400.255	4.95
400.615	4.94
400.975	4.92
401.334	4.91
401.694	4.9
402.054	4.88
402.413	4.87
402.773	4.85
403.132	4.84
403.492	4.83
403.851	4.82
404.211	4.81
404.57	4.8
404.929	4.79
405.288	4.78
405.648	4.77
406.007	4.76
406.366	4.76
406.725	4.75
407.084	4.74
407.443	4.73
407.802	4.73
408.161	4.73
408.52	4.73
408.879	4.72
409.238	4.71
409.596	4.71
409.955	4.71
410.314	4.71
410.673	4.7
411.031	4.7
411.39	4.7
411.748	4.7
412.107	4.7
412.465	4.71
412.824	4.72
413.182	4.74
413.54	4.76
413.899	4.79
414.257	4.82
414.615	4.86
414.974	4.89
415.332	4.93
415.69	4.97
416.048	5
416.406	5.04
416.764	5.07
417.122	5.09
417.48	5.13
417.838	5.16
418.195	5.18
418.553	5.2
418.911	5.21
419.269	5.22
419.626	5.21
419.984	5.2
420.342	5.18
420.699	5.16
421.057	5.13
421.414	5.11
421.772	5.09
422.129	5.08
422.486	5.07
422.844	5.06
423.201	5.06
423.558	5.05
423.915	5.05
424.273	5.04
424.63	5.04
424.987	5.03
425.344	5.03
425.701	5.03
426.058	5.02
426.415	5.02
426.772	5.01
427.128	5
427.485	4.99
427.842	4.97
428.199	4.95
428.555	4.93
428.912	4.9
429.269	4.86
429.625	4.83
429.982	4.8
430.338	4.76
430.695	4.74
431.051	4.7
431.407	4.67
431.764	4.65
432.12	4.62
432.476	4.6
432.832	4.59
433.189	4.59
433.545	4.59
433.901	4.61
434.257	4.63
434.613	4.65
434.969	4.68
435.325	4.71
435.681	4.75
436.036	4.78
436.392	4.8
436.748	4.82
437.104	4.83
437.459	4.85
437.815	4.87
438.171	4.89
438.526	4.92
438.882	4.96
439.237	5
439.593	5.04
439.948	5.07
440.304	5.11
440.659	5.13
441.014	5.16
441.369	5.19
441.725	5.21
442.08	5.23
442.435	5.24
442.79	5.25
443.145	5.26
443.5	5.25
443.855	5.25
444.21	5.25
444.565	5.25
444.92	5.23
445.275	5.22
445.629	5.21
445.984	5.2
446.339	5.19
446.693	5.17
447.048	5.15
447.403	5.13
447.757	5.11
448.112	5.09
448.466	5.05
448.82	5.03
449.175	5
449.529	4.97
449.883	4.95
450.238	4.92
450.592	4.91
450.946	4.9
451.3	4.9
451.654	4.91
452.008	4.9
452.362	4.91
452.716	4.91
453.07	4.9
453.424	4.89
453.778	4.88
454.132	4.87
454.486	4.86
454.839	4.84
455.193	4.81
455.547	4.8
455.9	4.77
456.254	4.75
456.607	4.71
456.961	4.68
457.314	4.66
457.668	4.64
458.021	4.64
458.375	4.63
458.728	4.64
459.081	4.64
459.434	4.65
459.787	4.66
460.141	4.67
460.494	4.68
460.847	4.69
461.2	4.7
461.553	4.7
461.906	4.71
462.259	4.71
462.611	4.72
462.964	4.72
463.317	4.74
463.67	4.74
464.022	4.76
464.375	4.76
464.728	4.77
465.08	4.77
465.433	4.78
465.785	4.77
466.138	4.76
466.49	4.75
466.843	4.73
467.195	4.71
467.547	4.69
467.899	4.66
468.252	4.63
468.604	4.61
468.956	4.59
469.308	4.57
469.66	4.57
470.012	4.57
470.364	4.58
470.716	4.58
471.068	4.6
471.42	4.63
471.772	4.65
472.123	4.67
472.475	4.68
472.827	4.7
473.178	4.71
473.53	4.72
473.882	4.74
474.233	4.77
474.585	4.81
474.936	4.88
475.288	4.99
475.639	5.12
475.99	5.27
476.342	5.44
476.693	5.62
477.044	5.81
477.395	6
477.746	6.2
478.097	6.4
478.448	6.6
478.8	6.8
479.15	6.98
479.501	7.14
479.852	7.3
480.203	7.45
480.554	7.59
480.905	7.72
481.255	7.84
481.606	7.97
481.957	8.08
482.307	8.19
482.658	8.29
483.009	8.39
483.359	8.49
483.709	8.58
484.06	8.67
484.41	8.76
484.761	8.84
485.111	8.93
485.461	9
485.811	9.07
486.162	9.14
486.512	9.2
486.862	9.24
487.212	9.27
487.562	9.29
487.912	9.31
488.262	9.31
488.612	9.31
488.961	9.28
489.311	9.24
489.661	9.16
490.011	9.06
490.36	8.94
490.71	8.81
491.06	8.66
491.409	8.5
491.759	8.33
492.108	8.16
492.458	7.98
492.807	7.8
493.157	7.61
493.506	7.44
493.855	7.28
494.204	7.12
494.554	6.97
494.903	6.83
495.252	6.7
495.601	6.58
495.95	6.46
496.299	6.35
496.648	6.24
496.997	6.14
497.346	6.05
497.695	5.96
498.043	5.88
498.392	5.8
498.741	5.72
499.09	5.65
499.438	5.58
499.787	5.52
500.135	5.46
500.484	5.41
500.832	5.38
501.181	5.36
501.529	5.35
501.878	5.36
502.226	5.38
502.574	5.4
502.923	5.43
503.271	5.46
503.619	5.49
503.967	5.52
504.315	5.55
504.663	5.58
505.011	5.62
505.359	5.65
505.707	5.68
506.055	5.72
506.403	5.76
506.751	5.81
507.098	5.86
507.446	5.91
507.794	5.96
508.141	6.02
508.489	6.08
508.837	6.15
509.184	6.22
509.531	6.3
509.879	6.37
510.226	6.45
510.574	6.54
510.921	6.63
511.268	6.73
511.616	6.83
511.963	6.93
512.31	7.04
512.657	7.14
513.004	7.25
513.351	7.35
513.698	7.45
514.045	7.53
514.392	7.62
514.739	7.69
515.086	7.76
515.432	7.84
515.779	7.91
516.126	7.99
516.473	8.07
516.819	8.17
517.166	8.27
517.512	8.39
517.859	8.51
518.205	8.65
518.552	8.8
518.898	8.97
519.245	9.16
519.591	9.4
519.937	9.69
520.283	10.02
520.629	10.38
520.976	10.76
521.322	11.17
521.668	11.58
522.014	12.01
522.36	12.44
522.706	12.85
523.052	13.25
523.398	13.63
523.743	13.98
524.089	14.3
524.435	14.6
524.781	14.89
525.126	15.18
525.472	15.47
525.817	15.75
526.163	16.02
526.509	16.28
526.854	16.54
527.199	16.81
527.545	17.07
527.89	17.34
528.235	17.61
528.581	17.87
528.926	18.12
529.271	18.35
529.616	18.57
529.961	18.79
530.306	19
530.651	19.2
530.996	19.38
531.341	19.54
531.686	19.69
532.031	19.84
532.376	20
532.721	20.17
533.065	20.37
533.41	20.57
533.755	20.75
534.099	20.91
534.444	21.06
534.788	21.19
535.133	21.31
535.477	21.41
535.822	21.5
536.166	21.55
536.51	21.58
536.855	21.57
537.199	21.55
537.543	21.53
537.887	21.53
538.231	21.55
538.576	21.57
538.92	21.59
539.264	21.6
539.608	21.6
539.951	21.58
540.295	21.57
540.639	21.54
540.983	21.51
541.327	21.46
541.671	21.41
542.014	21.37
542.358	21.35
542.701	21.36
543.045	21.43
543.389	21.51
543.732	21.61
544.075	21.72
544.419	21.84
544.762	21.97
545.105	22.11
545.449	22.26
545.792	22.42
546.135	22.58
546.478	22.72
546.821	22.83
547.165	22.9
547.508	22.94
547.851	22.96
548.194	22.94
548.536	22.9
548.879	22.84
549.222	22.76
549.565	22.68
549.908	22.61
550.25	22.56
550.593	22.55
550.936	22.58
551.278	22.65
551.621	22.74
551.963	22.85
552.306	22.97
552.648	23.12
552.991	23.29
553.333	23.47
553.675	23.67
554.017	23.9
554.36	24.16
554.702	24.43
555.044	24.73
555.386	25.07
555.728	25.43
556.07	25.77
556.412	26.1
556.754	26.38
557.096	26.63
557.438	26.88
557.78	27.13
558.121	27.38
558.463	27.63
558.805	27.88
559.147	28.14
559.488	28.4
559.83	28.66
560.171	28.92
560.513	29.17
560.854	29.42
561.196	29.67
561.537	29.91
561.878	30.16
562.22	30.38
562.561	30.61
562.902	30.85
563.243	31.09
563.584	31.31
563.925	31.55
564.266	31.78
564.607	32.01
564.948	32.23
565.289	32.46
565.63	32.67
565.971	32.9
566.312	33.12
566.653	33.33
566.993	33.54
567.334	33.75
567.675	33.95
568.015	34.15
568.356	34.35
568.696	34.54
569.037	34.73
569.377	34.91
569.718	35.08
570.058	35.25
570.398	35.41
570.739	35.58
571.079	35.74
571.419	35.89
571.759	36.04
572.099	36.19
572.439	36.34
572.779	36.48
573.119	36.62
573.459	36.77
573.799	36.91
574.139	37.05
574.479	37.19
574.819	37.33
575.158	37.46
575.498	37.59
575.838	37.72
576.177	37.86
576.517	37.99
576.856	38.11
577.196	38.23
577.535	38.36
577.875	38.47
578.214	38.59
578.553	38.71
578.893	38.83
579.232	38.96
579.571	39.08
579.91	39.19
580.25	39.31
580.589	39.44
580.928	39.56
581.267	39.68
581.606	39.79
581.945	39.91
582.283	40.02
582.622	40.14
582.961	40.25
583.3	40.38
583.639	40.5
583.977	40.62
584.316	40.74
584.654	40.85
584.993	40.97
585.332	41.07
585.67	41.18
586.008	41.29
586.347	41.39
586.685	41.5
587.024	41.61
587.362	41.71
587.7	41.81
588.038	41.92
588.376	42.03
588.715	42.14
589.053	42.26
589.391	42.37
589.729	42.47
590.067	42.57
590.404	42.68
590.742	42.78
591.08	42.88
591.418	42.99
591.756	43.09
592.093	43.18
592.431	43.28
592.769	43.37
593.106	43.45
593.444	43.52
593.781	43.6
594.119	43.67
594.456	43.74
594.793	43.82
595.131	43.89
595.468	43.97
595.805	44.05
596.143	44.14
596.48	44.23
596.817	44.31
597.154	44.39
597.491	44.48
597.828	44.57
598.165	44.66
598.502	44.75
598.839	44.82
599.176	44.89
599.512	44.95
599.849	45.03
600.186	45.1
600.523	45.16
600.859	45.22
601.196	45.28
601.532	45.35
601.869	45.4
602.205	45.47
602.542	45.53
602.878	45.59
603.215	45.64
603.551	45.7
603.887	45.76
604.223	45.81
604.56	45.86
604.896	45.91
605.232	45.95
605.568	45.99
605.904	46.03
606.24	46.08
606.576	46.11
606.912	46.15
607.248	46.19
607.583	46.23
607.919	46.27
608.255	46.31
608.591	46.35
608.926	46.39
609.262	46.43
609.597	46.47
609.933	46.5
610.268	46.53
610.604	46.56
610.939	46.59
611.275	46.62
611.61	46.63
611.945	46.66
612.281	46.68
612.616	46.71
612.951	46.73
613.286	46.77
613.621	46.81
613.956	46.84
614.291	46.88
614.626	46.91
614.961	46.95
615.296	46.98
615.631	47.02
615.966	47.05
616.3	47.08
616.635	47.11
616.97	47.14
617.304	47.17
617.639	47.2
617.973	47.24
618.308	47.28
618.642	47.31
618.977	47.36
619.311	47.41
619.646	47.45
619.98	47.47
620.314	47.53
620.648	47.56
620.983	47.6
621.317	47.64
621.651	47.68
621.985	47.72
622.319	47.75
622.653	47.77
622.987	47.8
623.321	47.83
623.655	47.86
623.988	47.88
624.322	47.91
624.656	47.95
624.99	47.98
625.323	48.01
625.657	48.04
625.99	48.07
626.324	48.11
626.657	48.15
626.991	48.18
627.324	48.2
627.658	48.22
627.991	48.24
628.324	48.28
628.657	48.3
628.991	48.32
629.324	48.34
629.657	48.37
629.99	48.39
630.323	48.42
630.656	48.46
630.989	48.49
631.322	48.52
631.655	48.54
631.987	48.57
632.32	48.6
632.653	48.62
632.986	48.65
633.318	48.67
633.651	48.7
633.984	48.72
634.316	48.75
634.649	48.77
634.981	48.8
635.313	48.82
635.646	48.84
635.978	48.87
636.31	48.9
636.643	48.92
636.975	48.94
637.307	48.96
637.639	49
637.971	49.02
638.303	49.04
638.635	49.07
638.967	49.1
639.299	49.12
639.631	49.14
639.963	49.17
640.295	49.2
640.626	49.22
640.958	49.25
641.29	49.29
641.621	49.33
641.953	49.35
642.285	49.38
642.616	49.42
642.948	49.44
643.279	49.45
643.61	49.48
643.942	49.49
644.273	49.5
644.604	49.53
644.936	49.54
645.267	49.56
645.598	49.57
645.929	49.6
646.26	49.61
646.591	49.62
646.922	49.64
647.253	49.67
647.584	49.7
647.915	49.71
648.245	49.73
648.576	49.76
648.907	49.76
649.238	49.8
649.568	49.82
649.899	49.85
650.229	49.89
650.56	49.91
650.89	49.93
651.221	49.95
651.551	49.97
651.882	49.99
652.212	50.02
652.542	50.04
652.872	50.06
653.203	50.08
653.533	50.1
653.863	50.11
654.193	50.15
654.523	50.17
654.853	50.18
655.183	50.2
655.513	50.2
655.843	50.2
656.172	50.2
656.502	50.23
656.832	50.25
657.162	50.27
657.491	50.28
657.821	50.29
658.15	50.31
658.48	50.33
658.809	50.35
659.139	50.36
659.468	50.37
659.798	50.4
660.127	50.42
660.456	50.44
660.785	50.45
661.115	50.47
661.444	50.5
661.773	50.52
662.102	50.53
662.431	50.56
662.76	50.58
663.089	50.59
663.418	50.61
663.747	50.61
664.076	50.62
664.404	50.65
664.733	50.67
665.062	50.7
665.39	50.72
665.719	50.73
666.048	50.75
666.376	50.78
666.705	50.8
667.033	50.81
667.362	50.82
667.69	50.82
668.018	50.85
668.347	50.86
668.675	50.88
669.003	50.92
669.331	50.97
669.659	50.99
669.987	51.01
670.315	51.02
670.643	51.05
670.971	51.09
671.299	51.1
671.627	51.12
671.955	51.14
672.283	51.16
672.61	51.18
672.938	51.2
673.266	51.23
673.593	51.24
673.921	51.24
674.249	51.27
674.576	51.28
674.904	51.28
675.231	51.3
675.558	51.32
675.886	51.32
676.213	51.32
676.54	51.34
676.867	51.35
677.195	51.37
677.522	51.38
677.849	51.38
678.176	51.41
678.503	51.42
678.83	51.42
679.157	51.42
679.484	51.42
679.81	51.44
680.137	51.45
680.464	51.47
680.791	51.5
681.117	51.5
681.444	51.5
681.771	51.52
682.097	51.53
682.424	51.52
682.75	51.53
683.077	51.55
683.403	51.56
683.729	51.6
684.056	51.61
684.382	51.62
684.708	51.66
685.034	51.67
685.36	51.69
685.686	51.71
686.012	51.74
686.339	51.74
686.664	51.75
686.99	51.75
687.316	51.77
687.642	51.78
687.968	51.79
688.294	51.82
688.619	51.84
688.945	51.85
689.271	51.87
689.596	51.9
689.922	51.92
690.247	51.92
690.573	51.94
690.898	51.95
691.224	51.98
691.549	51.98
691.874	51.99
692.2	52.01
692.525	52.04
692.85	52.06
693.175	52.07
693.5	52.09
693.825	52.09
694.15	52.11
694.475	52.14
694.8	52.15
695.125	52.16
695.45	52.16
695.775	52.17
696.099	52.18
696.424	52.18
696.749	52.2
697.073	52.2
697.398	52.23
697.723	52.24
698.047	52.25
698.372	52.26
698.696	52.28
699.02	52.28
699.345	52.28
699.669	52.31
699.993	52.34
700.318	52.36
700.642	52.39
700.966	52.39
701.29	52.41
701.614	52.42
701.938	52.44
702.262	52.46
702.586	52.47
702.91	52.49
703.234	52.51
703.557	52.53
703.881	52.55
704.205	52.59
704.529	52.6
704.852	52.63
705.176	52.65
705.499	52.68
705.823	52.71
706.146	52.73
706.47	52.76
706.793	52.79
707.117	52.83
707.44	52.84
707.763	52.86
708.086	52.89
708.409	52.91
708.733	52.96
709.056	52.99
709.379	53.02
709.702	53.04
710.025	53.06
710.348	53.08
710.671	53.07
710.993	53.09
711.316	53.1
711.639	53.11
711.962	53.11
712.284	53.13
712.607	53.14
712.93	53.14
713.252	53.14
713.575	53.16
713.897	53.18
714.22	53.19
714.542	53.19
714.864	53.17
715.187	53.16
715.509	53.16
715.831	53.17
716.153	53.16
716.475	53.19
716.798	53.18
717.12	53.17
717.442	53.17
717.764	53.16
718.085	53.16
718.407	53.17
718.729	53.17
719.051	53.17
719.373	53.22
719.695	53.24
720.016	53.25
720.338	53.24
720.659	53.23
720.981	53.24
721.302	53.24
721.624	53.27
721.945	53.24
722.267	53.24
722.588	53.26
722.909	53.27
723.231	53.25
723.552	53.23
723.873	53.24
724.194	53.26
724.515	53.26
724.836	53.27
725.157	53.28
725.478	53.32
725.799	53.33
726.12	53.36
726.441	53.34
726.762	53.35
727.083	53.36
727.403	53.38
727.724	53.37
728.045	53.4
728.365	53.44
728.686	53.46
729.006	53.47
729.327	53.49
729.647	53.5
729.967	53.51
730.288	53.54
730.608	53.56
730.928	53.58
731.249	53.61
731.569	53.62
731.889	53.65
732.209	53.65
732.529	53.63
732.849	53.64
733.169	53.62
733.489	53.65
733.809	53.68
734.129	53.7
734.448	53.7
734.768	53.72
735.088	53.74
735.408	53.75
735.727	53.76
736.047	53.76
736.366	53.78
736.686	53.81
737.005	53.82
737.325	53.81
737.644	53.83
737.963	53.82
738.283	53.79
738.602	53.79
738.921	53.82
739.24	53.8
739.56	53.84
739.879	53.82
740.198	53.83
740.517	53.84
740.836	53.85
741.155	53.87
741.473	53.84
741.792	53.86
742.111	53.9
742.43	53.9
742.748	53.86
743.067	53.86
743.386	53.87
743.704	53.87
744.023	53.86
744.341	53.86
744.66	53.88
744.978	53.87
745.297	53.88
745.615	53.89
745.933	53.89
746.252	53.89
746.57	53.87
746.888	53.87
747.206	53.87
747.524	53.88
747.842	53.88
748.16	53.88
748.478	53.87
748.796	53.88
749.114	53.9
749.432	53.91
749.749	53.91
750.067	53.9
750.385	53.91
750.703	53.92
751.02	53.92
751.338	53.95
751.655	53.94
751.973	53.9
752.29	53.91
752.608	53.89
752.925	53.93
753.242	53.93
753.56	53.92
753.877	53.94
754.194	53.94
754.511	53.98
754.828	53.97
755.145	53.95
755.462	53.98
755.779	54.01
756.096	54.03
756.413	54.07
756.73	54.07
757.047	54.07
757.364	54.05
757.68	54.04
757.997	54
758.314	54.03
758.63	54.03
758.947	54.03
759.264	54.07
759.58	54.06
759.896	54.1
760.213	54.1
760.529	54.12
760.846	54.13
761.162	54.15
761.478	54.2
761.794	54.23
762.11	54.24
762.426	54.23
762.743	54.23
763.059	54.22
763.375	54.21
763.69	54.22
764.006	54.24
764.322	54.28
764.638	54.31
764.954	54.33
765.27	54.35
765.585	54.34
765.901	54.32
766.216	54.35
766.532	54.35
766.848	54.37
767.163	54.39
767.478	54.39
767.794	54.41
768.109	54.4
768.424	54.4
768.74	54.41
769.055	54.43
769.37	54.39
769.685	54.42
770	54.44
770.315	54.44
770.63	54.45
770.945	54.47
771.26	54.46
771.575	54.47
771.89	54.47
772.205	54.45
772.52	54.47
772.834	54.45
773.149	54.46
773.464	54.43
773.778	54.41
774.093	54.42
774.407	54.39
774.722	54.35
775.036	54.35
775.351	54.35
775.665	54.33
775.979	54.36
776.293	54.37
776.608	54.33
776.922	54.37
777.236	54.32
777.55	54.28
777.864	54.25
778.178	54.21
778.492	54.26
778.806	54.3
779.12	54.28
779.434	54.28
779.747	54.28
780.061	54.25
780.375	54.31
780.689	54.3
781.002	54.33
781.316	54.35
781.629	54.36
781.943	54.35
782.256	54.41
782.57	54.36
782.883	54.37
783.196	54.36
783.51	54.42
783.823	54.45
784.136	54.46
784.449	54.46
784.762	54.47
785.075	54.5
785.388	54.46
785.701	54.44
786.014	54.48
786.327	54.48
786.64	54.49
786.953	54.49
787.266	54.52
787.578	54.55
787.891	54.55
788.204	54.64
788.516	54.7
788.829	54.67
789.141	54.68
789.454	54.69
789.766	54.68
790.079	54.7
790.391	54.68
790.703	54.7
791.016	54.71
791.328	54.69
791.64	54.64
791.952	54.62
792.264	54.58
792.576	54.55
792.888	54.53
793.2	54.5
793.512	54.49
793.824	54.49
794.136	54.46
794.448	54.44
794.76	54.45
795.071	54.43
795.383	54.44
795.695	54.42
796.006	54.47
796.318	54.4
796.629	54.39
796.941	54.43
797.252	54.46
797.564	54.48
797.875	54.41
798.186	54.49
798.497	54.56
798.809	54.53
799.12	54.55
799.431	54.57
799.742	54.53
800.053	54.5
800.364	54.48
800.675	54.43
800.986	54.38
801.297	54.38
801.608	54.41
801.918	54.42
802.229	54.45
802.54	54.46
802.851	54.47
803.161	54.49
803.472	54.5
803.782	54.52
804.093	54.48
804.403	54.52
804.714	54.55
805.024	54.64
805.334	54.67
805.645	54.69
805.955	54.68
806.265	54.7
806.575	54.67
806.885	54.67
807.195	54.71
807.505	54.67
807.815	54.7
808.125	54.73
808.435	54.75
808.745	54.69
809.055	54.74
809.365	54.8
809.674	54.76
809.984	54.71
810.294	54.68
810.603	54.78
810.913	54.73
811.222	54.68
811.532	54.67
811.841	54.64
812.151	54.68
812.46	54.71
812.769	54.67
813.079	54.72
813.388	54.75
813.697	54.73
814.006	54.74
814.315	54.73
814.624	54.77
814.933	54.84
815.242	54.78
815.551	54.76
815.86	54.76
816.169	54.8
816.478	54.86
816.786	54.97
817.095	54.94
817.404	54.9
817.712	54.85
818.021	54.84
818.33	54.88
818.638	54.89
818.947	54.89
819.255	54.91
819.563	54.92
819.872	54.94
820.18	54.96
820.488	54.97
820.796	54.97
821.105	54.97
821.413	54.99
821.721	55
822.029	55
822.337	55.03
822.645	55.07
822.953	55.07
823.26	55.07
823.568	55.1
823.876	55.11
824.184	55.13
824.491	55.16
824.799	55.16
825.107	55.15
825.414	55.16
825.722	55.14
826.029	55.16
826.337	55.19
826.644	55.18
826.951	55.2
827.259	55.2
827.566	55.17
827.873	55.19
828.18	55.22
828.488	55.23
828.795	55.25
829.102	55.23
829.409	55.22
829.716	55.25
830.023	55.26
830.329	55.27
830.636	55.29
830.943	55.29
831.25	55.3
831.557	55.32
831.863	55.33
832.17	55.3
832.476	55.29
832.783	55.3
833.089	55.27
833.396	55.29
833.702	55.31
834.009	55.3
834.315	55.31
834.621	55.32
834.928	55.29
835.234	55.23
835.54	55.23
835.846	55.2
836.152	55.15
836.458	55.15
836.764	55.11
837.07	55.12
837.376	55.11
837.682	55.13
837.988	55.11
838.293	55.13
838.599	55.07
838.905	55.03
839.211	55.01
839.516	54.96
839.822	54.97
840.127	55.02
840.433	55
840.738	54.94
841.044	54.96
841.349	54.88
841.654	54.86
841.959	54.86
842.265	54.8
842.57	54.85
842.875	54.91
843.18	54.87
843.485	54.83
843.79	54.77
844.095	54.78
844.4	54.78
844.705	54.81
845.01	54.76
845.315	54.77
845.619	54.83
845.924	54.84
846.229	54.85
846.533	54.88
846.838	54.83
847.142	54.83
847.447	54.86
847.751	55.04
848.056	54.97
848.36	55.16
848.664	55.21
848.969	55.2
849.273	55.27
849.577	55.18
849.881	55.19
850.185	55.24
850.489	55.34
850.794	55.35
851.097	55.41
851.401	55.48
851.705	55.62
852.009	55.8
852.313	55.7
852.617	55.76
852.92	55.81
853.224	55.94
853.528	55.88
853.831	56.02
854.135	56.07
854.438	56.05
854.742	56.1
855.045	56.15
855.349	56.23
855.652	56.45
855.955	56.51
856.259	56.7
856.562	56.73
856.865	56.85
857.168	56.89
857.471	56.9
857.774	56.9
858.077	56.82
858.38	56.88
858.683	56.87
858.986	56.66
859.289	56.82
859.592	56.74
859.894	56.76
860.197	56.61
860.5	56.74
860.802	56.66
861.105	56.61
861.407	56.52
861.71	56.4
862.012	56.42
862.315	56.33
862.617	56.26
862.919	56.27
863.222	56.25
863.524	56.19
863.826	56.22
864.128	56.04
864.43	55.99
864.732	55.89
865.034	55.77
865.336	55.66
865.638	55.44
865.94	55.57
866.242	55.55
866.544	55.58
866.846	55.78
867.147	55.76
867.449	55.64
867.751	55.49
868.052	55.49
868.354	55.45
868.655	55.42
868.957	55.35
869.258	55.27
869.56	55.18
869.861	55.35
870.162	55.34
870.463	55.38
870.765	55.23
871.066	55.18
871.367	55.38
871.668	55.24
871.969	55.29
872.27	55.15
872.571	55.11
872.872	55.1
873.173	55.11
873.473	55.12
873.774	55.18
874.075	55.27
874.376	55.26
874.676	55.29
874.977	55.35
875.277	55.32
875.578	55.39
875.878	55.45
876.179	55.31
876.479	55.52
876.78	55.38
877.08	55.49
877.38	55.48
877.68	55.6
877.981	55.74
878.281	55.6
878.581	55.62
