Data from UWBM86267_Reflection_00008.txt Node
Date: Sun May 02 14:08:04 EDT 2021
User: vgr7
Spectrometer: USB2G7710
Scans to average: 10
Trigger mode: 4
Integration Time (sec): 1.000000E-1
Electric dark correction enabled: true
Boxcar width: 20
XAxis mode: Wavelengths
Number of Pixels in Spectrum: 2048
>>>>>Begin Spectral Data<<<<<
177.721	140.57
178.105	129
178.488	131.67
178.871	237.31
179.254	155.16
179.636	126.61
180.019	106.77
180.402	87.03
180.785	84.14
181.168	61.99
181.55	36.83
181.933	40.21
182.316	37.88
182.698	36.59
183.081	32.69
183.463	29.71
183.846	27.28
184.228	26.33
184.611	26.3
184.993	25.28
185.376	27.88
185.758	27.97
186.14	29.8
186.522	27.8
186.904	29.76
187.287	31.99
187.669	33.26
188.051	29.55
188.433	27.11
188.815	24.21
189.197	26.04
189.579	25
189.961	23.04
190.342	22.34
190.724	23.4
191.106	23.82
191.488	25.6
191.869	26.52
192.251	24.41
192.633	25.57
193.014	23.1
193.396	18.19
193.777	20.76
194.159	22.55
194.54	20.64
194.922	20.64
195.303	19.97
195.684	19.18
196.065	20.11
196.447	17.95
196.828	17.64
197.209	19.57
197.59	17.08
197.971	17.1
198.352	17.03
198.733	18.58
199.114	19.76
199.495	20.14
199.876	21.04
200.257	21.21
200.638	20.46
201.018	21.41
201.399	22.98
201.78	21.13
202.16	19.97
202.541	18.18
202.922	15.85
203.302	16.4
203.683	18.32
204.063	18.97
204.444	19.46
204.824	18.56
205.204	17.51
205.585	17.41
205.965	17.56
206.345	15.57
206.725	15.99
207.106	15.11
207.486	14.21
207.866	14.33
208.246	12.57
208.626	13.03
209.006	13.81
209.386	13.2
209.766	13.51
210.145	11.85
210.525	9.76
210.905	11.66
211.285	9.94
211.664	9.93
212.044	10.16
212.424	11.47
212.803	11.96
213.183	13.51
213.562	13.97
213.942	13.48
214.321	11.23
214.701	10.07
215.08	10.37
215.459	9.35
215.838	9.37
216.218	8.37
216.597	6.31
216.976	5.54
217.355	8.07
217.734	10.14
218.113	10.59
218.492	10.85
218.871	10.12
219.25	9.09
219.629	8.57
220.008	8.32
220.387	6.2
220.766	7.33
221.144	7.07
221.523	8.21
221.902	9.05
222.28	8.59
222.659	7.55
223.037	7.79
223.416	8.18
223.794	8.14
224.173	8.18
224.551	8.08
224.929	8.15
225.308	6.85
225.686	7
226.064	7.48
226.442	6.99
226.821	7.73
227.199	7.38
227.577	7.66
227.955	7.5
228.333	7.58
228.711	6.97
229.089	6.46
229.467	6.19
229.845	5.93
230.222	5.81
230.6	5.77
230.978	5.6
231.356	5.59
231.733	5.6
232.111	5.6
232.488	5.17
232.866	4.54
233.243	4.21
233.621	4.16
233.998	4.17
234.376	4.16
234.753	3.89
235.13	3.93
235.508	3.98
235.885	4.11
236.262	3.93
236.639	3.9
237.016	3.75
237.393	3.64
237.77	3.63
238.147	3.66
238.524	3.7
238.901	3.62
239.278	3.62
239.655	3.61
240.032	3.63
240.409	3.62
240.785	3.7
241.162	3.7
241.539	3.67
241.915	3.7
242.292	3.69
242.668	3.72
243.045	3.68
243.421	3.65
243.798	3.63
244.174	3.67
244.551	3.7
244.927	3.73
245.303	3.76
245.679	3.77
246.056	3.71
246.432	3.71
246.808	3.69
247.184	3.71
247.56	3.7
247.936	3.73
248.312	3.75
248.688	3.74
249.064	3.72
249.44	3.73
249.815	3.69
250.191	3.67
250.567	3.69
250.943	3.68
251.318	3.66
251.694	3.68
252.069	3.66
252.445	3.63
252.82	3.64
253.196	3.63
253.571	3.63
253.947	3.62
254.322	3.62
254.697	3.6
255.073	3.57
255.448	3.55
255.823	3.51
256.198	3.49
256.573	3.47
256.948	3.48
257.323	3.44
257.698	3.41
258.073	3.37
258.448	3.37
258.823	3.36
259.198	3.34
259.573	3.32
259.948	3.32
260.322	3.31
260.697	3.28
261.072	3.28
261.446	3.28
261.821	3.27
262.195	3.25
262.57	3.25
262.944	3.25
263.319	3.24
263.693	3.21
264.067	3.23
264.442	3.22
264.816	3.19
265.19	3.22
265.564	3.23
265.938	3.22
266.313	3.22
266.687	3.21
267.061	3.21
267.435	3.21
267.809	3.22
268.183	3.21
268.556	3.2
268.93	3.2
269.304	3.2
269.678	3.2
270.051	3.19
270.425	3.19
270.799	3.19
271.172	3.21
271.546	3.22
271.919	3.23
272.293	3.2
272.666	3.21
273.04	3.23
273.413	3.28
273.787	3.27
274.16	3.26
274.533	3.26
274.906	3.25
275.279	3.25
275.653	3.26
276.026	3.28
276.399	3.29
276.772	3.3
277.145	3.32
277.518	3.34
277.891	3.35
278.263	3.34
278.636	3.36
279.009	3.37
279.382	3.37
279.755	3.39
280.127	3.4
280.5	3.41
280.872	3.43
281.245	3.43
281.617	3.45
281.99	3.45
282.362	3.44
282.735	3.45
283.107	3.46
283.479	3.46
283.852	3.49
284.224	3.49
284.596	3.48
284.968	3.5
285.34	3.53
285.713	3.55
286.085	3.57
286.457	3.58
286.829	3.58
287.201	3.6
287.572	3.62
287.944	3.64
288.316	3.65
288.688	3.65
289.06	3.68
289.431	3.71
289.803	3.75
290.175	3.78
290.546	3.8
290.918	3.83
291.289	3.85
291.661	3.85
292.032	3.88
292.403	3.91
292.775	3.92
293.146	3.95
293.517	3.99
293.889	4.03
294.26	4.06
294.631	4.11
295.002	4.14
295.373	4.19
295.744	4.22
296.115	4.26
296.486	4.32
296.857	4.36
297.228	4.39
297.599	4.45
297.97	4.49
298.34	4.53
298.711	4.57
299.082	4.6
299.452	4.65
299.823	4.7
300.194	4.72
300.564	4.77
300.935	4.82
301.305	4.87
301.676	4.92
302.046	4.96
302.416	5
302.787	5.05
303.157	5.1
303.527	5.15
303.897	5.21
304.267	5.27
304.637	5.32
305.008	5.37
305.378	5.44
305.748	5.49
306.117	5.55
306.487	5.63
306.857	5.71
307.227	5.77
307.597	5.85
307.967	5.92
308.336	5.99
308.706	6.03
309.076	6.08
309.445	6.14
309.815	6.18
310.184	6.24
310.554	6.29
310.923	6.34
311.293	6.38
311.662	6.42
312.031	6.47
312.401	6.53
312.77	6.59
313.139	6.64
313.508	6.7
313.877	6.76
314.246	6.83
314.616	6.87
314.985	6.94
315.353	7.02
315.722	7.05
316.091	7.11
316.46	7.15
316.829	7.21
317.198	7.28
317.567	7.35
317.935	7.42
318.304	7.48
318.672	7.54
319.041	7.6
319.41	7.65
319.778	7.73
320.147	7.78
320.515	7.83
320.883	7.88
321.252	7.93
321.62	7.97
321.988	8.02
322.357	8.07
322.725	8.1
323.093	8.12
323.461	8.15
323.829	8.21
324.197	8.24
324.565	8.26
324.933	8.31
325.301	8.35
325.669	8.39
326.037	8.42
326.405	8.45
326.772	8.47
327.14	8.48
327.508	8.48
327.875	8.52
328.243	8.54
328.61	8.54
328.978	8.56
329.346	8.57
329.713	8.6
330.08	8.61
330.448	8.61
330.815	8.63
331.182	8.63
331.55	8.66
331.917	8.68
332.284	8.67
332.651	8.69
333.018	8.71
333.385	8.73
333.752	8.77
334.119	8.77
334.486	8.8
334.853	8.81
335.22	8.83
335.587	8.85
335.954	8.87
336.32	8.88
336.687	8.9
337.054	8.91
337.42	8.92
337.787	8.93
338.153	8.94
338.52	8.94
338.886	8.94
339.253	8.94
339.619	8.96
339.986	8.97
340.352	8.97
340.718	8.97
341.084	8.97
341.451	8.98
341.817	9
342.183	9.02
342.549	9.03
342.915	9.01
343.281	9.01
343.647	9.02
344.013	9.01
344.379	9.01
344.745	9
345.11	9.02
345.476	9.03
345.842	9.04
346.208	9.04
346.573	9.03
346.939	9.02
347.304	9.02
347.67	9.01
348.035	8.99
348.401	8.99
348.766	8.97
349.132	8.97
349.497	8.97
349.862	8.95
350.228	8.93
350.593	8.91
350.958	8.91
351.323	8.89
351.688	8.87
352.053	8.86
352.418	8.84
352.783	8.82
353.148	8.8
353.513	8.78
353.878	8.75
354.243	8.72
354.608	8.69
354.972	8.66
355.337	8.63
355.702	8.6
356.066	8.56
356.431	8.52
356.795	8.48
357.16	8.44
357.524	8.42
357.889	8.4
358.253	8.37
358.618	8.34
358.982	8.31
359.346	8.28
359.71	8.25
360.075	8.2
360.439	8.16
360.803	8.12
361.167	8.08
361.531	8.05
361.895	8.01
362.259	7.97
362.623	7.94
362.987	7.91
363.351	7.88
363.714	7.83
364.078	7.79
364.442	7.74
364.806	7.7
365.169	7.66
365.533	7.61
365.896	7.56
366.26	7.51
366.623	7.47
366.987	7.41
367.35	7.37
367.714	7.32
368.077	7.27
368.44	7.22
368.803	7.17
369.167	7.11
369.53	7.05
369.893	6.99
370.256	6.92
370.619	6.86
370.982	6.8
371.345	6.74
371.708	6.69
372.071	6.63
372.434	6.56
372.797	6.5
373.159	6.44
373.522	6.39
373.885	6.34
374.247	6.28
374.61	6.22
374.973	6.16
375.335	6.1
375.698	6.05
376.06	5.99
376.423	5.93
376.785	5.88
377.147	5.83
377.51	5.78
377.872	5.72
378.234	5.66
378.596	5.61
378.958	5.56
379.321	5.5
379.683	5.46
380.045	5.4
380.407	5.36
380.769	5.31
381.13	5.27
381.492	5.22
381.854	5.18
382.216	5.13
382.578	5.09
382.939	5.05
383.301	5.01
383.663	4.97
384.024	4.93
384.386	4.89
384.747	4.86
385.109	4.82
385.47	4.79
385.832	4.75
386.193	4.71
386.554	4.68
386.916	4.64
387.277	4.61
387.638	4.59
387.999	4.56
388.36	4.53
388.721	4.5
389.082	4.48
389.443	4.45
389.804	4.42
390.165	4.4
390.526	4.37
390.887	4.34
391.248	4.32
391.609	4.29
391.969	4.27
392.33	4.24
392.691	4.22
393.051	4.19
393.412	4.17
393.772	4.15
394.133	4.12
394.493	4.1
394.854	4.07
395.214	4.05
395.574	4.02
395.935	4
396.295	3.98
396.655	3.95
397.015	3.93
397.376	3.9
397.736	3.88
398.096	3.86
398.456	3.84
398.816	3.83
399.176	3.8
399.535	3.78
399.895	3.76
400.255	3.74
400.615	3.72
400.975	3.7
401.334	3.68
401.694	3.66
402.054	3.65
402.413	3.62
402.773	3.6
403.132	3.59
403.492	3.57
403.851	3.55
404.211	3.54
404.57	3.53
404.929	3.52
405.288	3.51
405.648	3.5
406.007	3.49
406.366	3.48
406.725	3.47
407.084	3.46
407.443	3.45
407.802	3.44
408.161	3.43
408.52	3.42
408.879	3.42
409.238	3.41
409.596	3.4
409.955	3.4
410.314	3.39
410.673	3.38
411.031	3.38
411.39	3.37
411.748	3.37
412.107	3.37
412.465	3.36
412.824	3.37
413.182	3.39
413.54	3.39
413.899	3.41
414.257	3.43
414.615	3.45
414.974	3.47
415.332	3.5
415.69	3.52
416.048	3.54
416.406	3.56
416.764	3.58
417.122	3.6
417.48	3.62
417.838	3.64
418.195	3.65
418.553	3.67
418.911	3.67
419.269	3.67
419.626	3.67
419.984	3.66
420.342	3.64
420.699	3.63
421.057	3.6
421.414	3.59
421.772	3.57
422.129	3.56
422.486	3.55
422.844	3.55
423.201	3.54
423.558	3.54
423.915	3.53
424.273	3.53
424.63	3.52
424.987	3.52
425.344	3.51
425.701	3.51
426.058	3.51
426.415	3.5
426.772	3.5
427.128	3.49
427.485	3.48
427.842	3.46
428.199	3.44
428.555	3.43
428.912	3.41
429.269	3.38
429.625	3.36
429.982	3.33
430.338	3.31
430.695	3.29
431.051	3.26
431.407	3.24
431.764	3.22
432.12	3.2
432.476	3.19
432.832	3.18
433.189	3.17
433.545	3.18
433.901	3.18
434.257	3.2
434.613	3.21
434.969	3.23
435.325	3.25
435.681	3.28
436.036	3.3
436.392	3.31
436.748	3.33
437.104	3.33
437.459	3.35
437.815	3.36
438.171	3.38
438.526	3.39
438.882	3.42
439.237	3.44
439.593	3.47
439.948	3.49
440.304	3.52
440.659	3.54
441.014	3.55
441.369	3.57
441.725	3.58
442.08	3.6
442.435	3.61
442.79	3.61
443.145	3.61
443.5	3.61
443.855	3.61
444.21	3.6
444.565	3.6
444.92	3.59
445.275	3.59
445.629	3.58
445.984	3.57
446.339	3.56
446.693	3.55
447.048	3.54
447.403	3.52
447.757	3.5
448.112	3.49
448.466	3.46
448.82	3.45
449.175	3.42
449.529	3.41
449.883	3.39
450.238	3.37
450.592	3.36
450.946	3.35
451.3	3.35
451.654	3.35
452.008	3.35
452.362	3.35
452.716	3.35
453.07	3.35
453.424	3.34
453.778	3.34
454.132	3.33
454.486	3.32
454.839	3.3
455.193	3.29
455.547	3.28
455.9	3.26
456.254	3.24
456.607	3.22
456.961	3.2
457.314	3.18
457.668	3.17
458.021	3.17
458.375	3.17
458.728	3.17
459.081	3.17
459.434	3.18
459.787	3.18
460.141	3.19
460.494	3.2
460.847	3.2
461.2	3.21
461.553	3.21
461.906	3.22
462.259	3.22
462.611	3.23
462.964	3.23
463.317	3.24
463.67	3.25
464.022	3.26
464.375	3.26
464.728	3.27
465.08	3.27
465.433	3.27
465.785	3.27
466.138	3.27
466.49	3.26
466.843	3.25
467.195	3.23
467.547	3.22
467.899	3.2
468.252	3.19
468.604	3.17
468.956	3.16
469.308	3.14
469.66	3.14
470.012	3.14
470.364	3.15
470.716	3.15
471.068	3.16
471.42	3.18
471.772	3.2
472.123	3.21
472.475	3.22
472.827	3.23
473.178	3.24
473.53	3.24
473.882	3.26
474.233	3.27
474.585	3.3
474.936	3.35
475.288	3.42
475.639	3.51
475.99	3.61
476.342	3.73
476.693	3.85
477.044	3.98
477.395	4.1
477.746	4.24
478.097	4.37
478.448	4.5
478.8	4.64
479.15	4.76
479.501	4.88
479.852	4.98
480.203	5.08
480.554	5.18
480.905	5.27
481.255	5.35
481.606	5.43
481.957	5.51
482.307	5.59
482.658	5.65
483.009	5.72
483.359	5.79
483.709	5.85
484.06	5.91
484.41	5.97
484.761	6.03
485.111	6.09
485.461	6.14
485.811	6.19
486.162	6.23
486.512	6.27
486.862	6.3
487.212	6.33
487.562	6.34
487.912	6.35
488.262	6.35
488.612	6.35
488.961	6.34
489.311	6.3
489.661	6.25
490.011	6.19
490.36	6.11
490.71	6.01
491.06	5.92
491.409	5.81
491.759	5.7
492.108	5.58
492.458	5.46
492.807	5.34
493.157	5.22
493.506	5.1
493.855	4.99
494.204	4.88
494.554	4.78
494.903	4.69
495.252	4.6
495.601	4.52
495.95	4.44
496.299	4.37
496.648	4.29
496.997	4.23
497.346	4.17
497.695	4.11
498.043	4.06
498.392	4
498.741	3.95
499.09	3.9
499.438	3.86
499.787	3.82
500.135	3.79
500.484	3.76
500.832	3.74
501.181	3.73
501.529	3.73
501.878	3.75
502.226	3.76
502.574	3.79
502.923	3.81
503.271	3.84
503.619	3.87
503.967	3.9
504.315	3.93
504.663	3.96
505.011	3.99
505.359	4.02
505.707	4.05
506.055	4.08
506.403	4.12
506.751	4.16
507.098	4.2
507.446	4.25
507.794	4.29
508.141	4.34
508.489	4.4
508.837	4.46
509.184	4.51
509.531	4.57
509.879	4.64
510.226	4.71
510.574	4.78
510.921	4.86
511.268	4.94
511.616	5.02
511.963	5.11
512.31	5.2
512.657	5.28
513.004	5.37
513.351	5.45
513.698	5.53
514.045	5.59
514.392	5.66
514.739	5.72
515.086	5.78
515.432	5.85
515.779	5.9
516.126	5.97
516.473	6.03
516.819	6.11
517.166	6.19
517.512	6.28
517.859	6.37
518.205	6.48
518.552	6.6
518.898	6.73
519.245	6.87
519.591	7.05
519.937	7.27
520.283	7.51
520.629	7.77
520.976	8.06
521.322	8.36
521.668	8.66
522.014	8.97
522.36	9.27
522.706	9.58
523.052	9.87
523.398	10.15
523.743	10.41
524.089	10.64
524.435	10.85
524.781	11.07
525.126	11.28
525.472	11.47
525.817	11.67
526.163	11.87
526.509	12.05
526.854	12.24
527.199	12.43
527.545	12.62
527.89	12.81
528.235	13.01
528.581	13.19
528.926	13.37
529.271	13.54
529.616	13.7
529.961	13.85
530.306	14
530.651	14.13
530.996	14.26
531.341	14.38
531.686	14.48
532.031	14.58
532.376	14.69
532.721	14.81
533.065	14.95
533.41	15.09
533.755	15.22
534.099	15.34
534.444	15.44
534.788	15.54
535.133	15.62
535.477	15.69
535.822	15.76
536.166	15.8
536.51	15.83
536.855	15.82
537.199	15.81
537.543	15.8
537.887	15.8
538.231	15.82
538.576	15.84
538.92	15.86
539.264	15.88
539.608	15.89
539.951	15.89
540.295	15.88
540.639	15.88
540.983	15.87
541.327	15.85
541.671	15.82
542.014	15.8
542.358	15.79
542.701	15.82
543.045	15.88
543.389	15.96
543.732	16.06
544.075	16.16
544.419	16.27
544.762	16.39
545.105	16.53
545.449	16.67
545.792	16.82
546.135	16.96
546.478	17.1
546.821	17.22
547.165	17.31
547.508	17.39
547.851	17.43
548.194	17.46
548.536	17.48
548.879	17.48
549.222	17.48
549.565	17.47
549.908	17.47
550.25	17.49
550.593	17.54
550.936	17.62
551.278	17.74
551.621	17.87
551.963	18.02
552.306	18.19
552.648	18.38
552.991	18.59
553.333	18.81
553.675	19.06
554.017	19.33
554.36	19.61
554.702	19.92
555.044	20.25
555.386	20.61
555.728	21
556.07	21.37
556.412	21.75
556.754	22.08
557.096	22.38
557.438	22.68
557.78	23
558.121	23.32
558.463	23.65
558.805	23.98
559.147	24.31
559.488	24.64
559.83	24.98
560.171	25.32
560.513	25.66
560.854	26
561.196	26.34
561.537	26.67
561.878	27.01
562.22	27.34
562.561	27.68
562.902	28.01
563.243	28.34
563.584	28.68
563.925	29.02
564.266	29.36
564.607	29.7
564.948	30.04
565.289	30.38
565.63	30.71
565.971	31.05
566.312	31.37
566.653	31.7
566.993	32.03
567.334	32.36
567.675	32.67
568.015	32.99
568.356	33.31
568.696	33.63
569.037	33.92
569.377	34.22
569.718	34.52
570.058	34.81
570.398	35.09
570.739	35.37
571.079	35.64
571.419	35.91
571.759	36.18
572.099	36.44
572.439	36.72
572.779	36.98
573.119	37.24
573.459	37.51
573.799	37.78
574.139	38.05
574.479	38.3
574.819	38.57
575.158	38.83
575.498	39.09
575.838	39.34
576.177	39.59
576.517	39.83
576.856	40.08
577.196	40.32
577.535	40.57
577.875	40.83
578.214	41.08
578.553	41.33
578.893	41.58
579.232	41.84
579.571	42.1
579.91	42.37
580.25	42.64
580.589	42.9
580.928	43.15
581.267	43.41
581.606	43.68
581.945	43.94
582.283	44.2
582.622	44.47
582.961	44.74
583.3	45
583.639	45.26
583.977	45.52
584.316	45.77
584.654	46.02
584.993	46.26
585.332	46.5
585.67	46.73
586.008	46.96
586.347	47.19
586.685	47.42
587.024	47.65
587.362	47.86
587.7	48.08
588.038	48.31
588.376	48.54
588.715	48.78
589.053	49.01
589.391	49.24
589.729	49.47
590.067	49.68
590.404	49.89
590.742	50.1
591.08	50.32
591.418	50.51
591.756	50.7
592.093	50.9
592.431	51.06
592.769	51.23
593.106	51.38
593.444	51.54
593.781	51.69
594.119	51.83
594.456	51.98
594.793	52.14
595.131	52.3
595.468	52.46
595.805	52.61
596.143	52.77
596.48	52.94
596.817	53.1
597.154	53.27
597.491	53.43
597.828	53.59
598.165	53.75
598.502	53.9
598.839	54.04
599.176	54.19
599.512	54.32
599.849	54.46
600.186	54.58
600.523	54.71
600.859	54.84
601.196	54.96
601.532	55.08
601.869	55.2
602.205	55.32
602.542	55.42
602.878	55.53
603.215	55.66
603.551	55.76
603.887	55.88
604.223	55.99
604.56	56.09
604.896	56.19
605.232	56.29
605.568	56.38
605.904	56.47
606.24	56.57
606.576	56.65
606.912	56.74
607.248	56.82
607.583	56.9
607.919	56.97
608.255	57.05
608.591	57.12
608.926	57.2
609.262	57.27
609.597	57.34
609.933	57.41
610.268	57.48
610.604	57.55
610.939	57.62
611.275	57.68
611.61	57.73
611.945	57.81
612.281	57.87
612.616	57.94
612.951	58
613.286	58.09
613.621	58.16
613.956	58.23
614.291	58.28
614.626	58.35
614.961	58.41
615.296	58.47
615.631	58.53
615.966	58.59
616.3	58.66
616.635	58.72
616.97	58.76
617.304	58.83
617.639	58.9
617.973	58.96
618.308	59.01
618.642	59.07
618.977	59.13
619.311	59.2
619.646	59.27
619.98	59.33
620.314	59.38
620.648	59.43
620.983	59.5
621.317	59.55
621.651	59.61
621.985	59.65
622.319	59.71
622.653	59.75
622.987	59.8
623.321	59.85
623.655	59.89
623.988	59.92
624.322	59.96
624.656	60
624.99	60.05
625.323	60.11
625.657	60.15
625.99	60.2
626.324	60.23
626.657	60.27
626.991	60.3
627.324	60.33
627.658	60.37
627.991	60.42
628.324	60.44
628.657	60.49
628.991	60.52
629.324	60.56
629.657	60.6
629.99	60.63
630.323	60.66
630.656	60.7
630.989	60.73
631.322	60.76
631.655	60.8
631.987	60.83
632.32	60.87
632.653	60.89
632.986	60.91
633.318	60.94
633.651	60.96
633.984	61
634.316	61.04
634.649	61.07
634.981	61.12
635.313	61.16
635.646	61.19
635.978	61.21
636.31	61.26
636.643	61.29
636.975	61.33
637.307	61.35
637.639	61.39
637.971	61.42
638.303	61.46
638.635	61.49
638.967	61.5
639.299	61.52
639.631	61.54
639.963	61.57
640.295	61.61
640.626	61.63
640.958	61.66
641.29	61.7
641.621	61.72
641.953	61.76
642.285	61.79
642.616	61.83
642.948	61.86
643.279	61.89
643.61	61.93
643.942	61.95
644.273	61.98
644.604	62.01
644.936	62.03
645.267	62.05
645.598	62.06
645.929	62.09
646.26	62.12
646.591	62.15
646.922	62.16
647.253	62.19
647.584	62.21
647.915	62.22
648.245	62.24
648.576	62.25
648.907	62.26
649.238	62.29
649.568	62.32
649.899	62.34
650.229	62.35
650.56	62.37
650.89	62.4
651.221	62.42
651.551	62.44
651.882	62.45
652.212	62.48
652.542	62.5
652.872	62.53
653.203	62.56
653.533	62.59
653.863	62.58
654.193	62.6
654.523	62.62
654.853	62.64
655.183	62.64
655.513	62.66
655.843	62.65
656.172	62.68
656.502	62.69
656.832	62.7
657.162	62.71
657.491	62.74
657.821	62.73
658.15	62.75
658.48	62.76
658.809	62.79
659.139	62.8
659.468	62.81
659.798	62.83
660.127	62.85
660.456	62.88
660.785	62.89
661.115	62.92
661.444	62.94
661.773	62.96
662.102	62.98
662.431	62.99
662.76	63.01
663.089	63.03
663.418	63.04
663.747	63.07
664.076	63.09
664.404	63.1
664.733	63.11
665.062	63.11
665.39	63.13
665.719	63.14
666.048	63.15
666.376	63.16
666.705	63.17
667.033	63.21
667.362	63.23
667.69	63.25
668.018	63.25
668.347	63.26
668.675	63.27
669.003	63.3
669.331	63.3
669.659	63.3
669.987	63.32
670.315	63.33
670.643	63.33
670.971	63.34
671.299	63.35
671.627	63.37
671.955	63.41
672.283	63.41
672.61	63.43
672.938	63.46
673.266	63.45
673.593	63.46
673.921	63.47
674.249	63.49
674.576	63.49
674.904	63.48
675.231	63.5
675.558	63.51
675.886	63.53
676.213	63.55
676.54	63.57
676.867	63.57
677.195	63.58
677.522	63.58
677.849	63.59
678.176	63.61
678.503	63.62
678.83	63.64
679.157	63.64
679.484	63.65
679.81	63.66
680.137	63.68
680.464	63.67
680.791	63.72
681.117	63.74
681.444	63.77
681.771	63.79
682.097	63.81
682.424	63.81
682.75	63.85
683.077	63.85
683.403	63.84
683.729	63.86
684.056	63.88
684.382	63.89
684.708	63.89
685.034	63.9
685.36	63.9
685.686	63.91
686.012	63.93
686.339	63.93
686.664	63.94
686.99	63.95
687.316	63.96
687.642	63.96
687.968	64
688.294	64.03
688.619	64.05
688.945	64.06
689.271	64.07
689.596	64.08
689.922	64.08
690.247	64.09
690.573	64.1
690.898	64.12
691.224	64.15
691.549	64.17
691.874	64.18
692.2	64.16
692.525	64.21
692.85	64.23
693.175	64.23
693.5	64.21
693.825	64.21
694.15	64.18
694.475	64.18
694.8	64.16
695.125	64.14
695.45	64.14
695.775	64.14
696.099	64.15
696.424	64.18
696.749	64.17
697.073	64.16
697.398	64.19
697.723	64.21
698.047	64.23
698.372	64.24
698.696	64.26
699.02	64.27
699.345	64.26
699.669	64.27
699.993	64.29
700.318	64.29
700.642	64.3
700.966	64.31
701.29	64.3
701.614	64.3
701.938	64.27
702.262	64.3
702.586	64.32
702.91	64.33
703.234	64.34
703.557	64.36
703.881	64.36
704.205	64.38
704.529	64.37
704.852	64.39
705.176	64.39
705.499	64.43
705.823	64.42
706.146	64.4
706.47	64.42
706.793	64.44
707.117	64.45
707.44	64.48
707.763	64.48
708.086	64.53
708.409	64.57
708.733	64.58
709.056	64.62
709.379	64.59
709.702	64.59
710.025	64.64
710.348	64.68
710.671	64.66
710.993	64.65
711.316	64.65
711.639	64.66
711.962	64.67
712.284	64.69
712.607	64.73
712.93	64.75
713.252	64.77
713.575	64.79
713.897	64.8
714.22	64.82
714.542	64.83
714.864	64.85
715.187	64.88
715.509	64.88
715.831	64.86
716.153	64.85
716.475	64.85
716.798	64.86
717.12	64.87
717.442	64.87
717.764	64.88
718.085	64.86
718.407	64.86
718.729	64.87
719.051	64.88
719.373	64.9
719.695	64.91
720.016	64.93
720.338	64.95
720.659	64.98
720.981	65.02
721.302	65
721.624	65
721.945	65.03
722.267	65.04
722.588	65.07
722.909	65.09
723.231	65.12
723.552	65.1
723.873	65.14
724.194	65.15
724.515	65.18
724.836	65.19
725.157	65.2
725.478	65.18
725.799	65.15
726.12	65.14
726.441	65.14
726.762	65.13
727.083	65.14
727.403	65.13
727.724	65.13
728.045	65.14
728.365	65.14
728.686	65.17
729.006	65.2
729.327	65.23
729.647	65.26
729.967	65.26
730.288	65.27
730.608	65.25
730.928	65.26
731.249	65.3
731.569	65.3
731.889	65.33
732.209	65.35
732.529	65.35
732.849	65.36
733.169	65.37
733.489	65.39
733.809	65.38
734.129	65.35
734.448	65.34
734.768	65.35
735.088	65.36
735.408	65.35
735.727	65.36
736.047	65.37
736.366	65.35
736.686	65.35
737.005	65.34
737.325	65.35
737.644	65.32
737.963	65.3
738.283	65.3
738.602	65.32
738.921	65.33
739.24	65.35
739.56	65.35
739.879	65.36
740.198	65.36
740.517	65.37
740.836	65.35
741.155	65.38
741.473	65.38
741.792	65.33
742.111	65.31
742.43	65.32
742.748	65.28
743.067	65.26
743.386	65.28
743.704	65.29
744.023	65.27
744.341	65.27
744.66	65.27
744.978	65.27
745.297	65.28
745.615	65.3
745.933	65.29
746.252	65.27
746.57	65.25
746.888	65.25
747.206	65.27
747.524	65.31
747.842	65.31
748.16	65.29
748.478	65.29
748.796	65.32
749.114	65.28
749.432	65.31
749.749	65.31
750.067	65.28
750.385	65.31
750.703	65.33
751.02	65.33
751.338	65.32
751.655	65.3
751.973	65.3
752.29	65.31
752.608	65.28
752.925	65.29
753.242	65.3
753.56	65.3
753.877	65.36
754.194	65.35
754.511	65.33
754.828	65.34
755.145	65.36
755.462	65.38
755.779	65.44
756.096	65.42
756.413	65.39
756.73	65.41
757.047	65.42
757.364	65.41
757.68	65.45
757.997	65.47
758.314	65.48
758.63	65.47
758.947	65.5
759.264	65.55
759.58	65.58
759.896	65.57
760.213	65.6
760.529	65.62
760.846	65.65
761.162	65.68
761.478	65.68
761.794	65.67
762.11	65.68
762.426	65.65
762.743	65.69
763.059	65.68
763.375	65.66
763.69	65.66
764.006	65.68
764.322	65.65
764.638	65.68
764.954	65.68
765.27	65.68
765.585	65.68
765.901	65.67
766.216	65.66
766.532	65.63
766.848	65.62
767.163	65.62
767.478	65.64
767.794	65.66
768.109	65.67
768.424	65.64
768.74	65.63
769.055	65.64
769.37	65.65
769.685	65.62
770	65.61
770.315	65.62
770.63	65.59
770.945	65.56
771.26	65.5
771.575	65.49
771.89	65.49
772.205	65.46
772.52	65.41
772.834	65.44
773.149	65.41
773.464	65.38
773.778	65.34
774.093	65.27
774.407	65.25
774.722	65.24
775.036	65.25
775.351	65.24
775.665	65.21
775.979	65.26
776.293	65.26
776.608	65.3
776.922	65.28
777.236	65.3
777.55	65.34
777.864	65.32
778.178	65.32
778.492	65.36
778.806	65.36
779.12	65.42
779.434	65.46
779.747	65.43
780.061	65.49
780.375	65.49
780.689	65.48
781.002	65.47
781.316	65.51
781.629	65.51
781.943	65.52
782.256	65.5
782.57	65.53
782.883	65.56
783.196	65.52
783.51	65.5
783.823	65.5
784.136	65.54
784.449	65.54
784.762	65.49
785.075	65.46
785.388	65.53
785.701	65.51
786.014	65.51
786.327	65.51
786.64	65.53
786.953	65.61
787.266	65.65
787.578	65.65
787.891	65.65
788.204	65.7
788.516	65.77
788.829	65.75
789.141	65.77
789.454	65.76
789.766	65.77
790.079	65.78
790.391	65.72
790.703	65.81
791.016	65.81
791.328	65.84
791.64	65.81
791.952	65.76
792.264	65.72
792.576	65.72
792.888	65.66
793.2	65.68
793.512	65.71
793.824	65.67
794.136	65.67
794.448	65.64
794.76	65.66
795.071	65.69
795.383	65.71
795.695	65.69
796.006	65.71
796.318	65.74
796.629	65.7
796.941	65.66
797.252	65.66
797.564	65.69
797.875	65.73
798.186	65.69
798.497	65.7
798.809	65.71
799.12	65.7
799.431	65.68
799.742	65.65
800.053	65.61
800.364	65.62
800.675	65.58
800.986	65.55
801.297	65.48
801.608	65.48
801.918	65.45
802.229	65.44
802.54	65.52
802.851	65.55
803.161	65.55
803.472	65.45
803.782	65.46
804.093	65.39
804.403	65.44
804.714	65.49
805.024	65.51
805.334	65.51
805.645	65.5
805.955	65.49
806.265	65.47
806.575	65.54
806.885	65.46
807.195	65.54
807.505	65.46
807.815	65.55
808.125	65.55
808.435	65.64
808.745	65.6
809.055	65.6
809.365	65.68
809.674	65.77
809.984	65.8
810.294	65.81
810.603	65.78
810.913	65.83
811.222	65.82
811.532	65.85
811.841	65.85
812.151	65.83
812.46	65.86
812.769	65.93
813.079	65.95
813.388	66.01
813.697	66.03
814.006	66.11
814.315	66.12
814.624	66.14
814.933	66.09
815.242	66.02
815.551	66.01
815.86	66.05
816.169	66.11
816.478	66.06
816.786	66.07
817.095	66.03
817.404	65.97
817.712	65.95
818.021	65.99
818.33	65.95
818.638	65.93
818.947	65.9
819.255	65.87
819.563	65.9
819.872	65.96
820.18	66.01
820.488	65.98
820.796	66
821.105	66
821.413	66.06
821.721	66.07
822.029	66.06
822.337	66.05
822.645	66.04
822.953	66.01
823.26	66
823.568	65.99
823.876	65.99
824.184	66
824.491	66.01
824.799	66.03
825.107	66.04
825.414	66.02
825.722	66.02
826.029	66.01
826.337	65.99
826.644	65.99
826.951	65.99
827.259	65.99
827.566	66
827.873	66
828.18	66.01
828.488	66
828.795	65.99
829.102	65.99
829.409	66
829.716	66.01
830.023	66
830.329	66.02
830.636	66.02
830.943	66.06
831.25	66.09
831.557	66.13
831.863	66.13
832.17	66.12
832.476	66.05
832.783	66.01
833.089	65.99
833.396	65.97
833.702	65.9
834.009	65.82
834.315	65.76
834.621	65.75
834.928	65.75
835.234	65.72
835.54	65.73
835.846	65.71
836.152	65.67
836.458	65.68
836.764	65.66
837.07	65.63
837.376	65.62
837.682	65.58
837.988	65.64
838.293	65.63
838.599	65.67
838.905	65.68
839.211	65.67
839.516	65.65
839.822	65.63
840.127	65.64
840.433	65.65
840.738	65.62
841.044	65.61
841.349	65.6
841.654	65.6
841.959	65.51
842.265	65.5
842.57	65.58
842.875	65.55
843.18	65.39
843.485	65.33
843.79	65.21
844.095	65.12
844.4	65.23
844.705	65.22
845.01	65.2
845.315	65.26
845.619	65.22
845.924	65.15
846.229	65.25
846.533	65.31
846.838	65.46
847.142	65.5
847.447	65.54
847.751	65.63
848.056	65.62
848.36	65.62
848.664	65.67
848.969	65.76
849.273	65.66
849.577	65.56
849.881	65.41
850.185	65.43
850.489	65.31
850.794	65.3
851.097	65.28
851.401	65.37
851.705	65.22
852.009	65.26
852.313	65.41
852.617	65.37
852.92	65.27
853.224	65.32
853.528	65.23
853.831	65.19
854.135	65.26
854.438	65.5
854.742	65.39
855.045	65.34
855.349	65.48
855.652	65.65
855.955	65.64
856.259	65.87
856.562	65.85
856.865	65.68
857.168	65.67
857.471	65.5
857.774	65.38
858.077	65.36
858.38	65.36
858.683	65.29
858.986	65.34
859.289	65.15
859.592	65.1
859.894	65.07
860.197	65.14
860.5	65.17
860.802	65.24
861.105	65.2
861.407	64.86
861.71	64.92
862.012	64.9
862.315	65.07
862.617	64.94
862.919	64.87
863.222	64.82
863.524	64.82
863.826	64.77
864.128	65
864.43	64.87
864.732	65.01
865.034	64.85
865.336	64.84
865.638	64.73
865.94	64.91
866.242	64.93
866.544	64.91
866.846	64.73
867.147	64.77
867.449	64.88
867.751	64.86
868.052	64.99
868.354	64.89
868.655	64.74
868.957	64.75
869.258	64.85
869.56	64.8
869.861	65.18
870.162	64.94
870.463	65.08
870.765	65.05
871.066	65.17
871.367	65.05
871.668	65
871.969	64.98
872.27	64.99
872.571	65.02
872.872	65.03
873.173	65.15
873.473	65.2
873.774	65.34
874.075	65.26
874.376	65.45
874.676	65.35
874.977	65.41
875.277	65.47
875.578	65.45
875.878	65.34
876.179	65.26
876.479	65.03
876.78	65.21
877.08	64.84
877.38	65.07
877.68	65.14
877.981	65.18
878.281	65.08
878.581	65.08
