Data from UWBM41002_Reflection_00015.txt Node
Date: Sun May 02 14:15:36 EDT 2021
User: vgr7
Spectrometer: USB2G7710
Scans to average: 10
Trigger mode: 4
Integration Time (sec): 1.000000E-1
Electric dark correction enabled: true
Boxcar width: 20
XAxis mode: Wavelengths
Number of Pixels in Spectrum: 2048
>>>>>Begin Spectral Data<<<<<
177.721	148.21
178.105	103.53
178.488	96.84
178.871	101.8
179.254	76.1
179.636	46.33
180.019	47.3
180.402	29.84
180.785	26.37
181.168	24.16
181.55	18.98
181.933	20.86
182.316	24.21
182.698	24.44
183.081	25.39
183.463	26.27
183.846	27.19
184.228	29.61
184.611	28.74
184.993	28.42
185.376	30.13
185.758	31.52
186.14	33.21
186.522	31.25
186.904	28.03
187.287	27.64
187.669	24.39
188.051	22.76
188.433	23.6
188.815	20.05
189.197	20.54
189.579	19
189.961	18.85
190.342	17.29
190.724	19.85
191.106	19.26
191.488	19.6
191.869	17.22
192.251	15.53
192.633	14.88
193.014	14.26
193.396	10.31
193.777	11.88
194.159	11.18
194.54	10.72
194.922	9.44
195.303	9.59
195.684	9.03
196.065	10.24
196.447	11.45
196.828	11.62
197.209	11.63
197.59	9.6
197.971	8.02
198.352	8.81
198.733	8.4
199.114	8.61
199.495	8.34
199.876	6.22
200.257	7.04
200.638	4.62
201.018	4.3
201.399	5.84
201.78	4.98
202.16	5.12
202.541	5.71
202.922	4.79
203.302	5.17
203.683	6.07
204.063	5.95
204.444	6.17
204.824	6.11
205.204	6.42
205.585	7.66
205.965	9.8
206.345	8.29
206.725	8.15
207.106	8.52
207.486	9.4
207.866	10.59
208.246	10.23
208.626	7.62
209.006	8.59
209.386	8.52
209.766	7.99
210.145	7.56
210.525	8.4
210.905	9.82
211.285	7.93
211.664	8.8
212.044	8.12
212.424	7.98
212.803	7.83
213.183	8.18
213.562	8.85
213.942	8.21
214.321	9.18
214.701	7.78
215.08	7.82
215.459	7.94
215.838	8.16
216.218	8.28
216.597	8.45
216.976	8.62
217.355	8.19
217.734	8.48
218.113	8.3
218.492	8.53
218.871	8.89
219.25	8.55
219.629	8.92
220.008	8.88
220.387	8.12
220.766	8.06
221.144	7.78
221.523	7.4
221.902	7.76
222.28	7.51
222.659	7.58
223.037	7.2
223.416	6.93
223.794	7.65
224.173	8.24
224.551	7.47
224.929	8.2
225.308	8.72
225.686	8.62
226.064	8.41
226.442	7.87
226.821	8.46
227.199	8.23
227.577	7.93
227.955	8.07
228.333	8.2
228.711	7.81
229.089	7.08
229.467	6.84
229.845	6.26
230.222	6.08
230.6	5.95
230.978	6.24
231.356	5.74
231.733	5.54
232.111	5.47
232.488	5.26
232.866	5.1
233.243	4.85
233.621	4.85
233.998	4.86
234.376	4.74
234.753	4.49
235.13	4.55
235.508	4.64
235.885	4.65
236.262	4.41
236.639	4.32
237.016	4.25
237.393	4.26
237.77	4.34
238.147	4.28
238.524	4.28
238.901	4.19
239.278	4.22
239.655	4.3
240.032	4.28
240.409	4.24
240.785	4.27
241.162	4.29
241.539	4.25
241.915	4.28
242.292	4.28
242.668	4.28
243.045	4.33
243.421	4.26
243.798	4.28
244.174	4.34
244.551	4.39
244.927	4.38
245.303	4.41
245.679	4.44
246.056	4.39
246.432	4.36
246.808	4.37
247.184	4.42
247.56	4.43
247.936	4.4
248.312	4.38
248.688	4.4
249.064	4.38
249.44	4.36
249.815	4.32
250.191	4.31
250.567	4.32
250.943	4.3
251.318	4.26
251.694	4.3
252.069	4.28
252.445	4.27
252.82	4.27
253.196	4.25
253.571	4.21
253.947	4.2
254.322	4.2
254.697	4.19
255.073	4.16
255.448	4.18
255.823	4.16
256.198	4.14
256.573	4.13
256.948	4.15
257.323	4.12
257.698	4.09
258.073	4.04
258.448	4
258.823	3.99
259.198	3.98
259.573	3.94
259.948	3.95
260.322	3.95
260.697	3.93
261.072	3.91
261.446	3.92
261.821	3.91
262.195	3.9
262.57	3.89
262.944	3.88
263.319	3.89
263.693	3.9
264.067	3.89
264.442	3.88
264.816	3.86
265.19	3.86
265.564	3.86
265.938	3.84
266.313	3.84
266.687	3.83
267.061	3.82
267.435	3.83
267.809	3.83
268.183	3.82
268.556	3.82
268.93	3.83
269.304	3.83
269.678	3.84
270.051	3.83
270.425	3.82
270.799	3.8
271.172	3.8
271.546	3.82
271.919	3.82
272.293	3.8
272.666	3.81
273.04	3.83
273.413	3.88
273.787	3.88
274.16	3.9
274.533	3.89
274.906	3.9
275.279	3.88
275.653	3.88
276.026	3.88
276.399	3.9
276.772	3.91
277.145	3.91
277.518	3.93
277.891	3.94
278.263	3.92
278.636	3.92
279.009	3.92
279.382	3.92
279.755	3.95
280.127	3.97
280.5	4
280.872	4.04
281.245	4.05
281.617	4.07
281.99	4.11
282.362	4.11
282.735	4.13
283.107	4.14
283.479	4.14
283.852	4.16
284.224	4.19
284.596	4.2
284.968	4.22
285.34	4.23
285.713	4.26
286.085	4.29
286.457	4.31
286.829	4.31
287.201	4.33
287.572	4.35
287.944	4.38
288.316	4.4
288.688	4.42
289.06	4.46
289.431	4.49
289.803	4.54
290.175	4.59
290.546	4.65
290.918	4.7
291.289	4.74
291.661	4.79
292.032	4.83
292.403	4.88
292.775	4.93
293.146	4.98
293.517	5.03
293.889	5.08
294.26	5.14
294.631	5.19
295.002	5.25
295.373	5.3
295.744	5.35
296.115	5.4
296.486	5.49
296.857	5.55
297.228	5.61
297.599	5.68
297.97	5.74
298.34	5.8
298.711	5.87
299.082	5.92
299.452	5.99
299.823	6.06
300.194	6.13
300.564	6.21
300.935	6.28
301.305	6.35
301.676	6.43
302.046	6.52
302.416	6.59
302.787	6.66
303.157	6.75
303.527	6.82
303.897	6.91
304.267	7
304.637	7.1
305.008	7.18
305.378	7.27
305.748	7.36
306.117	7.45
306.487	7.55
306.857	7.63
307.227	7.71
307.597	7.8
307.967	7.89
308.336	7.98
308.706	8.06
309.076	8.14
309.445	8.22
309.815	8.29
310.184	8.36
310.554	8.43
310.923	8.52
311.293	8.57
311.662	8.63
312.031	8.7
312.401	8.77
312.77	8.84
313.139	8.92
313.508	9.01
313.877	9.1
314.246	9.19
314.616	9.26
314.985	9.33
315.353	9.39
315.722	9.44
316.091	9.53
316.46	9.6
316.829	9.67
317.198	9.73
317.567	9.83
317.935	9.93
318.304	10
318.672	10.08
319.041	10.18
319.41	10.27
319.778	10.36
320.147	10.43
320.515	10.5
320.883	10.57
321.252	10.65
321.62	10.72
321.988	10.81
322.357	10.9
322.725	10.97
323.093	11.02
323.461	11.08
323.829	11.15
324.197	11.21
324.565	11.26
324.933	11.32
325.301	11.37
325.669	11.44
326.037	11.48
326.405	11.54
326.772	11.6
327.14	11.66
327.508	11.7
327.875	11.74
328.243	11.79
328.61	11.81
328.978	11.84
329.346	11.88
329.713	11.92
330.08	11.97
330.448	11.99
330.815	12.06
331.182	12.08
331.55	12.13
331.917	12.17
332.284	12.2
332.651	12.24
333.018	12.28
333.385	12.32
333.752	12.39
334.119	12.44
334.486	12.48
334.853	12.53
335.22	12.59
335.587	12.63
335.954	12.68
336.32	12.7
336.687	12.73
337.054	12.76
337.42	12.79
337.787	12.83
338.153	12.87
338.52	12.9
338.886	12.93
339.253	12.97
339.619	13.01
339.986	13.04
340.352	13.08
340.718	13.1
341.084	13.13
341.451	13.16
341.817	13.17
342.183	13.2
342.549	13.23
342.915	13.27
343.281	13.29
343.647	13.33
344.013	13.35
344.379	13.37
344.745	13.4
345.11	13.43
345.476	13.46
345.842	13.47
346.208	13.49
346.573	13.5
346.939	13.52
347.304	13.54
347.67	13.55
348.035	13.55
348.401	13.57
348.766	13.58
349.132	13.59
349.497	13.58
349.862	13.58
350.228	13.58
350.593	13.58
350.958	13.59
351.323	13.6
351.688	13.6
352.053	13.6
352.418	13.61
352.783	13.6
353.148	13.57
353.513	13.57
353.878	13.54
354.243	13.52
354.608	13.51
354.972	13.49
355.337	13.47
355.702	13.45
356.066	13.42
356.431	13.38
356.795	13.36
357.16	13.33
357.524	13.3
357.889	13.27
358.253	13.24
358.618	13.2
358.982	13.17
359.346	13.14
359.71	13.11
360.075	13.07
360.439	13.03
360.803	12.99
361.167	12.97
361.531	12.93
361.895	12.89
362.259	12.85
362.623	12.8
362.987	12.77
363.351	12.72
363.714	12.67
364.078	12.62
364.442	12.57
364.806	12.51
365.169	12.46
365.533	12.4
365.896	12.34
366.26	12.27
366.623	12.21
366.987	12.14
367.35	12.06
367.714	12.01
368.077	11.93
368.44	11.87
368.803	11.79
369.167	11.7
369.53	11.62
369.893	11.53
370.256	11.44
370.619	11.35
370.982	11.27
371.345	11.18
371.708	11.09
372.071	11
372.434	10.91
372.797	10.82
373.159	10.73
373.522	10.65
373.885	10.57
374.247	10.48
374.61	10.39
374.973	10.3
375.335	10.21
375.698	10.12
376.06	10.02
376.423	9.93
376.785	9.84
377.147	9.75
377.51	9.66
377.872	9.57
378.234	9.48
378.596	9.38
378.958	9.3
379.321	9.21
379.683	9.13
380.045	9.05
380.407	8.97
380.769	8.89
381.13	8.81
381.492	8.74
381.854	8.66
382.216	8.58
382.578	8.5
382.939	8.43
383.301	8.35
383.663	8.28
384.024	8.21
384.386	8.14
384.747	8.08
385.109	8
385.47	7.93
385.832	7.86
386.193	7.8
386.554	7.73
386.916	7.66
387.277	7.6
387.638	7.54
387.999	7.48
388.36	7.42
388.721	7.36
389.082	7.3
389.443	7.24
389.804	7.18
390.165	7.13
390.526	7.07
390.887	7.02
391.248	6.96
391.609	6.91
391.969	6.86
392.33	6.81
392.691	6.75
393.051	6.7
393.412	6.65
393.772	6.59
394.133	6.54
394.493	6.48
394.854	6.42
395.214	6.37
395.574	6.32
395.935	6.27
396.295	6.21
396.655	6.16
397.015	6.11
397.376	6.06
397.736	6
398.096	5.95
398.456	5.9
398.816	5.85
399.176	5.8
399.535	5.75
399.895	5.7
400.255	5.66
400.615	5.61
400.975	5.57
401.334	5.52
401.694	5.47
402.054	5.44
402.413	5.4
402.773	5.35
403.132	5.32
403.492	5.28
403.851	5.25
404.211	5.22
404.57	5.19
404.929	5.16
405.288	5.13
405.648	5.11
406.007	5.09
406.366	5.06
406.725	5.04
407.084	5.01
407.443	4.98
407.802	4.97
408.161	4.95
408.52	4.92
408.879	4.91
409.238	4.89
409.596	4.87
409.955	4.85
410.314	4.83
410.673	4.81
411.031	4.8
411.39	4.78
411.748	4.76
412.107	4.75
412.465	4.74
412.824	4.75
413.182	4.75
413.54	4.76
413.899	4.77
414.257	4.78
414.615	4.8
414.974	4.82
415.332	4.84
415.69	4.86
416.048	4.88
416.406	4.9
416.764	4.92
417.122	4.93
417.48	4.95
417.838	4.96
418.195	4.96
418.553	4.97
418.911	4.97
419.269	4.95
419.626	4.93
419.984	4.91
420.342	4.88
420.699	4.85
421.057	4.82
421.414	4.78
421.772	4.76
422.129	4.73
422.486	4.71
422.844	4.7
423.201	4.68
423.558	4.66
423.915	4.65
424.273	4.63
424.63	4.62
424.987	4.61
425.344	4.6
425.701	4.58
426.058	4.57
426.415	4.56
426.772	4.54
427.128	4.52
427.485	4.5
427.842	4.47
428.199	4.44
428.555	4.42
428.912	4.38
429.269	4.34
429.625	4.31
429.982	4.27
430.338	4.23
430.695	4.19
431.051	4.15
431.407	4.12
431.764	4.1
432.12	4.07
432.476	4.05
432.832	4.04
433.189	4.04
433.545	4.04
433.901	4.05
434.257	4.07
434.613	4.09
434.969	4.11
435.325	4.14
435.681	4.18
436.036	4.2
436.392	4.22
436.748	4.24
437.104	4.25
437.459	4.26
437.815	4.28
438.171	4.3
438.526	4.33
438.882	4.35
439.237	4.39
439.593	4.42
439.948	4.45
440.304	4.48
440.659	4.5
441.014	4.52
441.369	4.54
441.725	4.56
442.08	4.57
442.435	4.58
442.79	4.58
443.145	4.58
443.5	4.58
443.855	4.57
444.21	4.57
444.565	4.56
444.92	4.55
445.275	4.54
445.629	4.53
445.984	4.51
446.339	4.49
446.693	4.48
447.048	4.45
447.403	4.43
447.757	4.4
448.112	4.37
448.466	4.34
448.82	4.31
449.175	4.28
449.529	4.25
449.883	4.23
450.238	4.19
450.592	4.18
450.946	4.16
451.3	4.15
451.654	4.15
452.008	4.14
452.362	4.14
452.716	4.14
453.07	4.13
453.424	4.11
453.778	4.1
454.132	4.09
454.486	4.07
454.839	4.05
455.193	4.02
455.547	4.01
455.9	3.98
456.254	3.96
456.607	3.94
456.961	3.91
457.314	3.89
457.668	3.88
458.021	3.88
458.375	3.87
458.728	3.88
459.081	3.88
459.434	3.89
459.787	3.9
460.141	3.91
460.494	3.92
460.847	3.93
461.2	3.94
461.553	3.95
461.906	3.97
462.259	3.97
462.611	3.98
462.964	3.99
463.317	4.01
463.67	4.02
464.022	4.04
464.375	4.05
464.728	4.07
465.08	4.08
465.433	4.09
465.785	4.1
466.138	4.09
466.49	4.09
466.843	4.08
467.195	4.08
467.547	4.07
467.899	4.06
468.252	4.04
468.604	4.03
468.956	4.03
469.308	4.02
469.66	4.03
470.012	4.04
470.364	4.05
470.716	4.07
471.068	4.09
471.42	4.12
471.772	4.14
472.123	4.16
472.475	4.18
472.827	4.2
473.178	4.21
473.53	4.22
473.882	4.25
474.233	4.27
474.585	4.31
474.936	4.37
475.288	4.46
475.639	4.57
475.99	4.7
476.342	4.85
476.693	5.01
477.044	5.17
477.395	5.33
477.746	5.5
478.097	5.66
478.448	5.83
478.8	5.99
479.15	6.14
479.501	6.29
479.852	6.41
480.203	6.53
480.554	6.65
480.905	6.76
481.255	6.86
481.606	6.95
481.957	7.05
482.307	7.13
482.658	7.21
483.009	7.29
483.359	7.37
483.709	7.44
484.06	7.51
484.41	7.58
484.761	7.65
485.111	7.71
485.461	7.77
485.811	7.82
486.162	7.88
486.512	7.93
486.862	7.96
487.212	7.98
487.562	8
487.912	8.01
488.262	8.01
488.612	8.01
488.961	7.99
489.311	7.96
489.661	7.89
490.011	7.81
490.36	7.71
490.71	7.6
491.06	7.48
491.409	7.35
491.759	7.22
492.108	7.08
492.458	6.94
492.807	6.79
493.157	6.65
493.506	6.52
493.855	6.39
494.204	6.27
494.554	6.15
494.903	6.06
495.252	5.97
495.601	5.89
495.95	5.81
496.299	5.74
496.648	5.67
496.997	5.62
497.346	5.57
497.695	5.53
498.043	5.49
498.392	5.46
498.741	5.43
499.09	5.41
499.438	5.4
499.787	5.4
500.135	5.4
500.484	5.42
500.832	5.44
501.181	5.48
501.529	5.54
501.878	5.61
502.226	5.69
502.574	5.78
502.923	5.87
503.271	5.97
503.619	6.08
503.967	6.19
504.315	6.3
504.663	6.41
505.011	6.53
505.359	6.64
505.707	6.76
506.055	6.89
506.403	7.02
506.751	7.15
507.098	7.28
507.446	7.43
507.794	7.57
508.141	7.72
508.489	7.88
508.837	8.05
509.184	8.21
509.531	8.38
509.879	8.56
510.226	8.75
510.574	8.95
510.921	9.16
511.268	9.37
511.616	9.59
511.963	9.81
512.31	10.03
512.657	10.25
513.004	10.47
513.351	10.68
513.698	10.88
514.045	11.06
514.392	11.24
514.739	11.41
515.086	11.57
515.432	11.73
515.779	11.88
516.126	12.05
516.473	12.22
516.819	12.41
517.166	12.61
517.512	12.83
517.859	13.07
518.205	13.32
518.552	13.59
518.898	13.88
519.245	14.21
519.591	14.62
519.937	15.1
520.283	15.65
520.629	16.25
520.976	16.87
521.322	17.53
521.668	18.21
522.014	18.89
522.36	19.58
522.706	20.25
523.052	20.9
523.398	21.52
523.743	22.09
524.089	22.61
524.435	23.1
524.781	23.58
525.126	24.05
525.472	24.51
525.817	24.96
526.163	25.41
526.509	25.85
526.854	26.29
527.199	26.72
527.545	27.16
527.89	27.61
528.235	28.06
528.581	28.49
528.926	28.89
529.271	29.29
529.616	29.66
529.961	30.03
530.306	30.38
530.651	30.71
530.996	31.02
531.341	31.29
531.686	31.56
532.031	31.81
532.376	32.09
532.721	32.4
533.065	32.75
533.41	33.1
533.755	33.42
534.099	33.72
534.444	33.98
534.788	34.21
535.133	34.43
535.477	34.63
535.822	34.8
536.166	34.93
536.51	35.01
536.855	35.03
537.199	35.01
537.543	35
537.887	35.01
538.231	35.07
538.576	35.13
538.92	35.18
539.264	35.21
539.608	35.22
539.951	35.22
540.295	35.2
540.639	35.18
540.983	35.12
541.327	35.06
541.671	34.97
542.014	34.92
542.358	34.87
542.701	34.9
543.045	35.01
543.389	35.14
543.732	35.3
544.075	35.47
544.419	35.66
544.762	35.86
545.105	36.08
545.449	36.31
545.792	36.55
546.135	36.78
546.478	36.98
546.821	37.11
547.165	37.19
547.508	37.21
547.851	37.19
548.194	37.12
548.536	37
548.879	36.86
549.222	36.7
549.565	36.52
549.908	36.34
550.25	36.2
550.593	36.11
550.936	36.1
551.278	36.14
551.621	36.22
551.963	36.33
552.306	36.45
552.648	36.6
552.991	36.78
553.333	36.98
553.675	37.23
554.017	37.5
554.36	37.8
554.702	38.14
555.044	38.51
555.386	38.92
555.728	39.39
556.07	39.79
556.412	40.21
556.754	40.53
557.096	40.79
557.438	41.05
557.78	41.32
558.121	41.59
558.463	41.85
558.805	42.1
559.147	42.36
559.488	42.61
559.83	42.86
560.171	43.12
560.513	43.36
560.854	43.61
561.196	43.84
561.537	44.08
561.878	44.3
562.22	44.52
562.561	44.74
562.902	44.94
563.243	45.15
563.584	45.37
563.925	45.57
564.266	45.78
564.607	45.96
564.948	46.16
565.289	46.35
565.63	46.54
565.971	46.73
566.312	46.9
566.653	47.09
566.993	47.26
567.334	47.43
567.675	47.58
568.015	47.74
568.356	47.9
568.696	48.05
569.037	48.19
569.377	48.33
569.718	48.46
570.058	48.58
570.398	48.71
570.739	48.83
571.079	48.94
571.419	49.05
571.759	49.16
572.099	49.26
572.439	49.36
572.779	49.46
573.119	49.56
573.459	49.65
573.799	49.74
574.139	49.83
574.479	49.93
574.819	50.01
575.158	50.1
575.498	50.19
575.838	50.27
576.177	50.36
576.517	50.45
576.856	50.53
577.196	50.61
577.535	50.68
577.875	50.76
578.214	50.83
578.553	50.91
578.893	50.97
579.232	51.04
579.571	51.11
579.91	51.19
580.25	51.25
580.589	51.31
580.928	51.37
581.267	51.42
581.606	51.49
581.945	51.56
582.283	51.61
582.622	51.67
582.961	51.75
583.3	51.82
583.639	51.89
583.977	51.97
584.316	52.02
584.654	52.08
584.993	52.16
585.332	52.21
585.67	52.28
586.008	52.33
586.347	52.39
586.685	52.47
587.024	52.53
587.362	52.6
587.7	52.65
588.038	52.72
588.376	52.77
588.715	52.84
589.053	52.91
589.391	52.97
589.729	53.04
590.067	53.1
590.404	53.17
590.742	53.23
591.08	53.28
591.418	53.33
591.756	53.38
592.093	53.43
592.431	53.48
592.769	53.52
593.106	53.58
593.444	53.62
593.781	53.66
594.119	53.7
594.456	53.75
594.793	53.8
595.131	53.84
595.468	53.89
595.805	53.93
596.143	53.98
596.48	54.03
596.817	54.08
597.154	54.14
597.491	54.19
597.828	54.24
598.165	54.28
598.502	54.35
598.839	54.39
599.176	54.45
599.512	54.5
599.849	54.54
600.186	54.58
600.523	54.61
600.859	54.64
601.196	54.67
601.532	54.71
601.869	54.76
602.205	54.8
602.542	54.84
602.878	54.87
603.215	54.9
603.551	54.93
603.887	54.96
604.223	54.98
604.56	55.02
604.896	55.05
605.232	55.08
605.568	55.1
605.904	55.13
606.24	55.16
606.576	55.18
606.912	55.2
607.248	55.22
607.583	55.25
607.919	55.27
608.255	55.29
608.591	55.32
608.926	55.34
609.262	55.35
609.597	55.38
609.933	55.38
610.268	55.4
610.604	55.4
610.939	55.4
611.275	55.42
611.61	55.43
611.945	55.44
612.281	55.45
612.616	55.46
612.951	55.47
613.286	55.47
613.621	55.49
613.956	55.5
614.291	55.52
614.626	55.52
614.961	55.55
615.296	55.58
615.631	55.59
615.966	55.6
616.3	55.6
616.635	55.6
616.97	55.62
617.304	55.63
617.639	55.63
617.973	55.64
618.308	55.64
618.642	55.66
618.977	55.66
619.311	55.7
619.646	55.71
619.98	55.73
620.314	55.77
620.648	55.79
620.983	55.81
621.317	55.82
621.651	55.84
621.985	55.87
622.319	55.87
622.653	55.89
622.987	55.92
623.321	55.94
623.655	55.97
623.988	55.99
624.322	56
624.656	56.01
624.99	56.03
625.323	56.05
625.657	56.06
625.99	56.08
626.324	56.1
626.657	56.12
626.991	56.13
627.324	56.14
627.658	56.15
627.991	56.16
628.324	56.18
628.657	56.2
628.991	56.21
629.324	56.22
629.657	56.23
629.99	56.25
630.323	56.27
630.656	56.29
630.989	56.3
631.322	56.31
631.655	56.32
631.987	56.35
632.32	56.37
632.653	56.37
632.986	56.39
633.318	56.39
633.651	56.41
633.984	56.42
634.316	56.42
634.649	56.43
634.981	56.45
635.313	56.46
635.646	56.48
635.978	56.49
636.31	56.52
636.643	56.53
636.975	56.54
637.307	56.56
637.639	56.57
637.971	56.59
638.303	56.61
638.635	56.62
638.967	56.63
639.299	56.64
639.631	56.65
639.963	56.66
640.295	56.67
640.626	56.7
640.958	56.71
641.29	56.73
641.621	56.75
641.953	56.77
642.285	56.76
642.616	56.76
642.948	56.78
643.279	56.79
643.61	56.8
643.942	56.82
644.273	56.81
644.604	56.82
644.936	56.85
645.267	56.86
645.598	56.86
645.929	56.87
646.26	56.89
646.591	56.9
646.922	56.91
647.253	56.94
647.584	56.95
647.915	56.97
648.245	56.99
648.576	56.99
648.907	57.02
649.238	57.01
649.568	57.03
649.899	57.03
650.229	57.04
650.56	57.05
650.89	57.07
651.221	57.08
651.551	57.09
651.882	57.11
652.212	57.12
652.542	57.14
652.872	57.14
653.203	57.15
653.533	57.15
653.863	57.17
654.193	57.18
654.523	57.18
654.853	57.19
655.183	57.21
655.513	57.22
655.843	57.23
656.172	57.24
656.502	57.25
656.832	57.27
657.162	57.28
657.491	57.29
657.821	57.33
658.15	57.35
658.48	57.36
658.809	57.37
659.139	57.39
659.468	57.4
659.798	57.41
660.127	57.41
660.456	57.43
660.785	57.45
661.115	57.45
661.444	57.47
661.773	57.47
662.102	57.48
662.431	57.48
662.76	57.5
663.089	57.51
663.418	57.53
663.747	57.54
664.076	57.54
664.404	57.55
664.733	57.58
665.062	57.59
665.39	57.58
665.719	57.6
666.048	57.61
666.376	57.63
666.705	57.63
667.033	57.66
667.362	57.66
667.69	57.67
668.018	57.69
668.347	57.69
668.675	57.72
669.003	57.73
669.331	57.74
669.659	57.76
669.987	57.79
670.315	57.8
670.643	57.81
670.971	57.81
671.299	57.8
671.627	57.81
671.955	57.82
672.283	57.83
672.61	57.83
672.938	57.85
673.266	57.86
673.593	57.87
673.921	57.86
674.249	57.85
674.576	57.86
674.904	57.85
675.231	57.86
675.558	57.87
675.886	57.9
676.213	57.89
676.54	57.9
676.867	57.88
677.195	57.9
677.522	57.92
677.849	57.92
678.176	57.93
678.503	57.95
678.83	57.95
679.157	57.95
679.484	57.96
679.81	57.98
680.137	57.97
680.464	57.99
680.791	58
681.117	58
681.444	58.02
681.771	58.03
682.097	58.02
682.424	58.04
682.75	58.05
683.077	58.03
683.403	58.02
683.729	58.03
684.056	58.04
684.382	58.05
684.708	58.05
685.034	58.04
685.36	58.07
685.686	58.08
686.012	58.1
686.339	58.11
686.664	58.12
686.99	58.13
687.316	58.14
687.642	58.15
687.968	58.16
688.294	58.19
688.619	58.19
688.945	58.23
689.271	58.24
689.596	58.24
689.922	58.27
690.247	58.3
690.573	58.3
690.898	58.32
691.224	58.34
691.549	58.35
691.874	58.33
692.2	58.33
692.525	58.33
692.85	58.33
693.175	58.33
693.5	58.36
693.825	58.36
694.15	58.37
694.475	58.4
694.8	58.39
695.125	58.4
695.45	58.42
695.775	58.41
696.099	58.41
696.424	58.44
696.749	58.45
697.073	58.46
697.398	58.48
697.723	58.46
698.047	58.47
698.372	58.48
698.696	58.47
699.02	58.48
699.345	58.48
699.669	58.49
699.993	58.5
700.318	58.51
700.642	58.53
700.966	58.56
701.29	58.57
701.614	58.57
701.938	58.58
702.262	58.57
702.586	58.57
702.91	58.59
703.234	58.58
703.557	58.59
703.881	58.61
704.205	58.61
704.529	58.62
704.852	58.62
705.176	58.65
705.499	58.67
705.823	58.69
706.146	58.72
706.47	58.73
706.793	58.73
707.117	58.76
707.44	58.76
707.763	58.78
708.086	58.78
708.409	58.78
708.733	58.8
709.056	58.81
709.379	58.82
709.702	58.84
710.025	58.86
710.348	58.86
710.671	58.87
710.993	58.9
711.316	58.91
711.639	58.94
711.962	58.95
712.284	58.95
712.607	58.94
712.93	58.94
713.252	58.95
713.575	58.95
713.897	58.96
714.22	58.94
714.542	58.94
714.864	58.95
715.187	58.96
715.509	58.98
715.831	58.99
716.153	59
716.475	58.98
716.798	58.98
717.12	58.99
717.442	58.99
717.764	58.97
718.085	58.99
718.407	59
718.729	59.03
719.051	59.05
719.373	59.06
719.695	59.06
720.016	59.08
720.338	59.05
720.659	59.07
720.981	59.07
721.302	59.1
721.624	59.12
721.945	59.12
722.267	59.13
722.588	59.18
722.909	59.18
723.231	59.18
723.552	59.21
723.873	59.22
724.194	59.26
724.515	59.27
724.836	59.26
725.157	59.28
725.478	59.25
725.799	59.26
726.12	59.26
726.441	59.27
726.762	59.27
727.083	59.26
727.403	59.26
727.724	59.27
728.045	59.26
728.365	59.26
728.686	59.28
729.006	59.29
729.327	59.27
729.647	59.27
729.967	59.29
730.288	59.29
730.608	59.29
730.928	59.31
731.249	59.33
731.569	59.3
731.889	59.31
732.209	59.31
732.529	59.32
732.849	59.34
733.169	59.36
733.489	59.41
733.809	59.4
734.129	59.42
734.448	59.46
734.768	59.46
735.088	59.46
735.408	59.47
735.727	59.44
736.047	59.42
736.366	59.44
736.686	59.44
737.005	59.43
737.325	59.41
737.644	59.42
737.963	59.4
738.283	59.4
738.602	59.43
738.921	59.46
739.24	59.48
739.56	59.49
739.879	59.48
740.198	59.46
740.517	59.48
740.836	59.49
741.155	59.51
741.473	59.48
741.792	59.48
742.111	59.46
742.43	59.48
742.748	59.54
743.067	59.56
743.386	59.54
743.704	59.56
744.023	59.53
744.341	59.53
744.66	59.59
744.978	59.55
745.297	59.57
745.615	59.56
745.933	59.5
746.252	59.47
746.57	59.46
746.888	59.47
747.206	59.42
747.524	59.41
747.842	59.4
748.16	59.43
748.478	59.42
748.796	59.44
749.114	59.46
749.432	59.43
749.749	59.45
750.067	59.44
750.385	59.45
750.703	59.48
751.02	59.51
751.338	59.53
751.655	59.56
751.973	59.51
752.29	59.51
752.608	59.51
752.925	59.54
753.242	59.61
753.56	59.61
753.877	59.62
754.194	59.61
754.511	59.63
754.828	59.63
755.145	59.69
755.462	59.71
755.779	59.71
756.096	59.7
756.413	59.76
756.73	59.77
757.047	59.8
757.364	59.81
757.68	59.79
757.997	59.8
758.314	59.82
758.63	59.84
758.947	59.89
759.264	59.92
759.58	59.92
759.896	59.96
760.213	59.95
760.529	59.9
760.846	59.92
761.162	59.94
761.478	59.95
761.794	59.95
762.11	59.96
762.426	59.97
762.743	59.94
763.059	59.95
763.375	59.96
763.69	59.95
764.006	59.94
764.322	59.92
764.638	59.92
764.954	59.95
765.27	59.95
765.585	59.95
765.901	59.95
766.216	59.94
766.532	59.96
766.848	59.97
767.163	59.97
767.478	59.97
767.794	59.96
768.109	59.94
768.424	59.94
768.74	59.93
769.055	59.89
769.37	59.85
769.685	59.84
770	59.82
770.315	59.83
770.63	59.8
770.945	59.81
771.26	59.78
771.575	59.76
771.89	59.78
772.205	59.75
772.52	59.75
772.834	59.71
773.149	59.75
773.464	59.79
773.778	59.77
774.093	59.72
774.407	59.7
774.722	59.68
775.036	59.68
775.351	59.65
775.665	59.68
775.979	59.7
776.293	59.63
776.608	59.65
776.922	59.67
777.236	59.7
777.55	59.73
777.864	59.72
778.178	59.72
778.492	59.72
778.806	59.72
779.12	59.68
779.434	59.68
779.747	59.71
780.061	59.76
780.375	59.79
780.689	59.77
781.002	59.78
781.316	59.77
781.629	59.77
781.943	59.82
782.256	59.85
782.57	59.85
782.883	59.82
783.196	59.82
783.51	59.86
783.823	59.82
784.136	59.9
784.449	59.93
784.762	59.88
785.075	59.92
785.388	59.91
785.701	59.89
786.014	59.93
786.327	59.94
786.64	59.94
786.953	59.97
787.266	60.01
787.578	60.01
787.891	60
788.204	60.07
788.516	60.08
788.829	60.06
789.141	60.09
789.454	60.09
789.766	60.09
790.079	60.06
790.391	60.01
790.703	60
791.016	60.03
791.328	60.09
791.64	60.06
791.952	60.11
792.264	59.99
792.576	59.92
792.888	59.91
793.2	59.92
793.512	59.97
793.824	59.9
794.136	59.91
794.448	59.88
794.76	59.92
795.071	59.9
795.383	59.92
795.695	59.98
796.006	59.97
796.318	59.93
796.629	59.97
796.941	59.96
797.252	59.92
797.564	59.91
797.875	59.9
798.186	59.91
798.497	59.92
798.809	59.85
799.12	59.81
799.431	59.82
799.742	59.79
800.053	59.77
800.364	59.78
800.675	59.79
800.986	59.77
801.297	59.79
801.608	59.79
801.918	59.79
802.229	59.76
802.54	59.77
802.851	59.74
803.161	59.77
803.472	59.73
803.782	59.75
804.093	59.65
804.403	59.69
804.714	59.68
805.024	59.75
805.334	59.76
805.645	59.78
805.955	59.74
806.265	59.7
806.575	59.72
806.885	59.74
807.195	59.75
807.505	59.75
807.815	59.74
808.125	59.67
808.435	59.66
808.745	59.65
809.055	59.69
809.365	59.7
809.674	59.63
809.984	59.67
810.294	59.73
810.603	59.77
810.913	59.81
811.222	59.8
811.532	59.88
811.841	59.92
812.151	59.92
812.46	60
812.769	59.98
813.079	60.02
813.388	60.01
813.697	59.99
814.006	59.93
814.315	59.96
814.624	59.99
814.933	59.94
815.242	59.94
815.551	59.94
815.86	60
816.169	60.1
816.478	60.14
816.786	60.21
817.095	60.2
817.404	60.2
817.712	60.24
818.021	60.31
818.33	60.29
818.638	60.29
818.947	60.3
819.255	60.32
819.563	60.36
819.872	60.38
820.18	60.44
820.488	60.46
820.796	60.5
821.105	60.52
821.413	60.57
821.721	60.58
822.029	60.59
822.337	60.63
822.645	60.63
822.953	60.62
823.26	60.6
823.568	60.61
823.876	60.64
824.184	60.63
824.491	60.63
824.799	60.65
825.107	60.65
825.414	60.65
825.722	60.63
826.029	60.65
826.337	60.67
826.644	60.69
826.951	60.68
827.259	60.69
827.566	60.71
827.873	60.69
828.18	60.73
828.488	60.71
828.795	60.7
829.102	60.67
829.409	60.68
829.716	60.7
830.023	60.72
830.329	60.74
830.636	60.72
830.943	60.74
831.25	60.78
831.557	60.77
831.863	60.78
832.17	60.75
832.476	60.75
832.783	60.69
833.089	60.66
833.396	60.63
833.702	60.59
834.009	60.53
834.315	60.5
834.621	60.49
834.928	60.44
835.234	60.43
835.54	60.45
835.846	60.41
836.152	60.39
836.458	60.36
836.764	60.33
837.07	60.36
837.376	60.28
837.682	60.27
837.988	60.25
838.293	60.26
838.599	60.23
838.905	60.16
839.211	60.13
839.516	60.09
839.822	60.07
840.127	60.09
840.433	60.18
840.738	60.14
841.044	60.16
841.349	60.18
841.654	60.21
841.959	60.22
842.265	60.17
842.57	60.16
842.875	60.1
843.18	60.12
843.485	59.98
843.79	60
844.095	60.09
844.4	60.14
844.705	60.06
845.01	60.09
845.315	60.02
845.619	60.06
845.924	60.15
846.229	60.14
846.533	60.21
846.838	60.26
847.142	60.23
847.447	60.26
847.751	60.25
848.056	60.14
848.36	60.36
848.664	60.25
848.969	60.27
849.273	60.41
849.577	60.3
849.881	60.35
850.185	60.23
850.489	60.32
850.794	60.37
851.097	60.22
851.401	60.44
851.705	60.27
852.009	60.52
852.313	60.61
852.617	60.58
852.92	60.54
853.224	60.56
853.528	60.54
853.831	60.42
854.135	60.5
854.438	60.34
854.742	60.31
855.045	60.18
855.349	60.18
855.652	60.29
855.955	60.46
856.259	60.36
856.562	60.34
856.865	60.43
857.168	60.63
857.471	60.72
857.774	60.76
858.077	60.84
858.38	60.66
858.683	60.52
858.986	60.4
859.289	60.41
859.592	60.38
859.894	60.43
860.197	60.41
860.5	60.64
860.802	60.42
861.105	60.39
861.407	60.25
861.71	60.13
862.012	60.02
862.315	60.2
862.617	60.2
862.919	60.22
863.222	60.17
863.524	60.19
863.826	60.12
864.128	60.34
864.43	60.3
864.732	60.14
865.034	60.14
865.336	59.98
865.638	59.97
865.94	59.91
866.242	59.82
866.544	59.75
866.846	59.8
867.147	59.86
867.449	59.95
867.751	60
868.052	59.97
868.354	60.03
868.655	59.97
868.957	59.98
869.258	59.88
869.56	59.76
869.861	59.78
870.162	59.81
870.463	59.75
870.765	59.82
871.066	59.98
871.367	59.94
871.668	59.96
871.969	60.02
872.27	59.77
872.571	59.76
872.872	59.61
873.173	59.69
873.473	59.81
873.774	59.88
874.075	59.84
874.376	59.98
874.676	59.8
874.977	59.86
875.277	59.8
875.578	59.83
875.878	59.92
876.179	59.86
876.479	59.8
876.78	59.72
877.08	59.88
877.38	59.81
877.68	59.89
877.981	59.84
878.281	59.95
878.581	60.23
