Data from UWBM42201_Reflection_00005.txt Node
Date: Sun May 02 12:48:28 EDT 2021
User: vgr7
Spectrometer: USB2G7710
Scans to average: 10
Trigger mode: 4
Integration Time (sec): 1.000000E-1
Electric dark correction enabled: true
Boxcar width: 20
XAxis mode: Wavelengths
Number of Pixels in Spectrum: 2048
>>>>>Begin Spectral Data<<<<<
177.721	98.57
178.105	97.39
178.488	96.49
178.871	96.13
179.254	95.77
179.636	93.96
180.019	91.93
180.402	89.33
180.785	87.79
181.168	85.55
181.55	83.49
181.933	115.68
182.316	115.85
182.698	117.35
183.081	118.37
183.463	120.35
183.846	122.31
184.228	123.83
184.611	126.27
184.993	129.67
185.376	132.39
185.758	-122.2
186.14	-65.24
186.522	-31.97
186.904	-17.43
187.287	-5.79
187.669	-3.44
188.051	-3.24
188.433	0.97
188.815	-3.92
189.197	-3.26
189.579	-2.98
189.961	-2.51
190.342	-7.08
190.724	-6.69
191.106	-6.91
191.488	-4.8
191.869	-9.46
192.251	-9.13
192.633	-11.52
193.014	-12.82
193.396	-13.23
193.777	-4.82
194.159	-3.89
194.54	-5.57
194.922	-4.68
195.303	-2.21
195.684	-1.7
196.065	-0.81
196.447	-4.82
196.828	-5.03
197.209	-4.38
197.59	-17.58
197.971	-18.3
198.352	-18.36
198.733	-16.54
199.114	-17.21
199.495	-18.77
199.876	-17.71
200.257	-16.57
200.638	-17.4
201.018	-24.34
201.399	-25.89
201.78	-27.79
202.16	-27.54
202.541	-26.43
202.922	-28.01
203.302	-30.82
203.683	-28.21
204.063	-27.71
204.444	-26.35
204.824	-24.27
205.204	-20.99
205.585	-10.58
205.965	-10.28
206.345	-8.02
206.725	-14.45
207.106	-13.25
207.486	-13.64
207.866	-11.9
208.246	-10.96
208.626	-6.97
209.006	-0.79
209.386	-4.93
209.766	-4.99
210.145	-5.33
210.525	-7.87
210.905	-7.56
211.285	-6.47
211.664	-7.44
212.044	-3.83
212.424	-4.41
212.803	-10.82
213.183	-5.88
213.562	-6.75
213.942	-6.86
214.321	-10.08
214.701	-10.57
215.08	-8.38
215.459	-9.38
215.838	-10.25
216.218	-8.55
216.597	-9.38
216.976	-12.57
217.355	-12.09
217.734	-11.29
218.113	-10.24
218.492	-9.25
218.871	-8.06
219.25	-8.02
219.629	-7.73
220.008	-7.52
220.387	-6.55
220.766	-5.75
221.144	-6.95
221.523	-4.13
221.902	-3.66
222.28	-2.17
222.659	-1.42
223.037	-0.58
223.416	0.65
223.794	1.81
224.173	0.55
224.551	0.18
224.929	0.45
225.308	1.32
225.686	1.08
226.064	1.61
226.442	1.38
226.821	1.44
227.199	1.35
227.577	0.65
227.955	0.2
228.333	0.64
228.711	0.26
229.089	1.09
229.467	0.84
229.845	2.03
230.222	2.07
230.6	2.58
230.978	2.74
231.356	2.15
231.733	2.18
232.111	2.26
232.488	2.14
232.866	2.3
233.243	2.07
233.621	2.36
233.998	2.51
234.376	2.62
234.753	2.75
235.13	2.87
235.508	3.48
235.885	3.76
236.262	3.81
236.639	4.08
237.016	3.97
237.393	4.03
237.77	3.92
238.147	3.85
238.524	3.87
238.901	3.94
239.278	4.06
239.655	4.13
240.032	4.11
240.409	4.24
240.785	4.25
241.162	4.41
241.539	4.44
241.915	4.5
242.292	4.51
242.668	4.44
243.045	4.48
243.421	4.4
243.798	4.34
244.174	4.37
244.551	4.28
244.927	4.15
245.303	4.09
245.679	4.12
246.056	4.07
246.432	4.06
246.808	3.9
247.184	3.89
247.56	3.88
247.936	3.9
248.312	3.9
248.688	3.96
249.064	3.93
249.44	3.91
249.815	3.92
250.191	3.89
250.567	3.87
250.943	3.97
251.318	3.95
251.694	3.88
252.069	3.83
252.445	3.86
252.82	3.96
253.196	4
253.571	3.96
253.947	4.06
254.322	4.02
254.697	4.15
255.073	4.15
255.448	4.14
255.823	4.1
256.198	4.04
256.573	3.85
256.948	3.84
257.323	3.84
257.698	3.8
258.073	3.81
258.448	3.67
258.823	3.67
259.198	3.65
259.573	3.66
259.948	3.72
260.322	3.7
260.697	3.71
261.072	3.72
261.446	3.67
261.821	3.66
262.195	3.63
262.57	3.61
262.944	3.6
263.319	3.59
263.693	3.61
264.067	3.64
264.442	3.74
264.816	3.72
265.19	3.7
265.564	3.75
265.938	3.72
266.313	3.76
266.687	3.73
267.061	3.76
267.435	3.74
267.809	3.72
268.183	3.69
268.556	3.69
268.93	3.69
269.304	3.67
269.678	3.63
270.051	3.59
270.425	3.59
270.799	3.6
271.172	3.6
271.546	3.6
271.919	3.59
272.293	3.57
272.666	3.56
273.04	3.56
273.413	3.5
273.787	3.5
274.16	3.5
274.533	3.53
274.906	3.5
275.279	3.5
275.653	3.47
276.026	3.44
276.399	3.4
276.772	3.42
277.145	3.44
277.518	3.46
277.891	3.47
278.263	3.47
278.636	3.48
279.009	3.49
279.382	3.45
279.755	3.4
280.127	3.42
280.5	3.42
280.872	3.4
281.245	3.51
281.617	3.51
281.99	3.52
282.362	3.53
282.735	3.52
283.107	3.52
283.479	3.53
283.852	3.54
284.224	3.57
284.596	3.54
284.968	3.44
285.34	3.43
285.713	3.41
286.085	3.32
286.457	3.33
286.829	3.3
287.201	3.31
287.572	3.35
287.944	3.36
288.316	3.39
288.688	3.43
289.06	3.43
289.431	3.43
289.803	3.43
290.175	3.44
290.546	3.46
290.918	3.49
291.289	3.46
291.661	3.47
292.032	3.43
292.403	3.45
292.775	3.53
293.146	3.54
293.517	3.58
293.889	3.64
294.26	3.64
294.631	3.65
295.002	3.68
295.373	3.72
295.744	3.7
296.115	3.71
296.486	3.65
296.857	3.64
297.228	3.63
297.599	3.64
297.97	3.63
298.34	3.65
298.711	3.59
299.082	3.59
299.452	3.61
299.823	3.64
300.194	3.64
300.564	3.63
300.935	3.64
301.305	3.63
301.676	3.6
302.046	3.61
302.416	3.61
302.787	3.61
303.157	3.55
303.527	3.54
303.897	3.53
304.267	3.54
304.637	3.54
305.008	3.56
305.378	3.57
305.748	3.56
306.117	3.62
306.487	3.67
306.857	3.71
307.227	3.71
307.597	3.69
307.967	3.68
308.336	3.68
308.706	3.68
309.076	3.69
309.445	3.67
309.815	3.57
310.184	3.57
310.554	3.51
310.923	3.53
311.293	3.53
311.662	3.53
312.031	3.52
312.401	3.52
312.77	3.49
313.139	3.48
313.508	3.5
313.877	3.45
314.246	3.43
314.616	3.4
314.985	3.37
315.353	3.38
315.722	3.38
316.091	3.37
316.46	3.38
316.829	3.41
317.198	3.41
317.567	3.54
317.935	3.55
318.304	3.59
318.672	3.62
319.041	3.63
319.41	3.63
319.778	3.67
320.147	3.68
320.515	3.68
320.883	3.66
321.252	3.6
321.62	3.64
321.988	3.65
322.357	3.65
322.725	3.72
323.093	3.73
323.461	3.72
323.829	3.73
324.197	3.72
324.565	3.71
324.933	3.7
325.301	3.69
325.669	3.69
326.037	3.7
326.405	3.66
326.772	3.66
327.14	3.66
327.508	3.65
327.875	3.66
328.243	3.66
328.61	3.61
328.978	3.62
329.346	3.62
329.713	3.6
330.08	3.6
330.448	3.59
330.815	3.57
331.182	3.59
331.55	3.57
331.917	3.58
332.284	3.58
332.651	3.59
333.018	3.59
333.385	3.57
333.752	3.57
334.119	3.57
334.486	3.58
334.853	3.55
335.22	3.55
335.587	3.54
335.954	3.55
336.32	3.55
336.687	3.54
337.054	3.55
337.42	3.56
337.787	3.55
338.153	3.57
338.52	3.61
338.886	3.63
339.253	3.62
339.619	3.61
339.986	3.58
340.352	3.58
340.718	3.58
341.084	3.59
341.451	3.58
341.817	3.57
342.183	3.55
342.549	3.56
342.915	3.55
343.281	3.58
343.647	3.59
344.013	3.61
344.379	3.61
344.745	3.62
345.11	3.61
345.476	3.62
345.842	3.63
346.208	3.61
346.573	3.61
346.939	3.63
347.304	3.62
347.67	3.62
348.035	3.63
348.401	3.63
348.766	3.64
349.132	3.66
349.497	3.66
349.862	3.67
350.228	3.68
350.593	3.68
350.958	3.67
351.323	3.67
351.688	3.67
352.053	3.66
352.418	3.66
352.783	3.65
353.148	3.63
353.513	3.63
353.878	3.63
354.243	3.64
354.608	3.63
354.972	3.64
355.337	3.64
355.702	3.63
356.066	3.63
356.431	3.62
356.795	3.62
357.16	3.6
357.524	3.6
357.889	3.59
358.253	3.59
358.618	3.59
358.982	3.6
359.346	3.61
359.71	3.61
360.075	3.62
360.439	3.62
360.803	3.61
361.167	3.6
361.531	3.62
361.895	3.62
362.259	3.63
362.623	3.62
362.987	3.61
363.351	3.62
363.714	3.63
364.078	3.62
364.442	3.62
364.806	3.64
365.169	3.62
365.533	3.61
365.896	3.6
366.26	3.61
366.623	3.6
366.987	3.59
367.35	3.59
367.714	3.61
368.077	3.61
368.44	3.61
368.803	3.6
369.167	3.6
369.53	3.61
369.893	3.61
370.256	3.62
370.619	3.62
370.982	3.62
371.345	3.62
371.708	3.63
372.071	3.63
372.434	3.63
372.797	3.65
373.159	3.66
373.522	3.67
373.885	3.66
374.247	3.64
374.61	3.64
374.973	3.63
375.335	3.63
375.698	3.63
376.06	3.64
376.423	3.63
376.785	3.63
377.147	3.62
377.51	3.64
377.872	3.64
378.234	3.64
378.596	3.65
378.958	3.66
379.321	3.66
379.683	3.66
380.045	3.66
380.407	3.66
380.769	3.66
381.13	3.66
381.492	3.67
381.854	3.67
382.216	3.66
382.578	3.66
382.939	3.67
383.301	3.66
383.663	3.66
384.024	3.65
384.386	3.66
384.747	3.65
385.109	3.64
385.47	3.64
385.832	3.64
386.193	3.63
386.554	3.63
386.916	3.63
387.277	3.63
387.638	3.65
387.999	3.65
388.36	3.65
388.721	3.65
389.082	3.65
389.443	3.65
389.804	3.66
390.165	3.66
390.526	3.66
390.887	3.66
391.248	3.65
391.609	3.65
391.969	3.66
392.33	3.66
392.691	3.65
393.051	3.65
393.412	3.65
393.772	3.65
394.133	3.65
394.493	3.65
394.854	3.66
395.214	3.65
395.574	3.65
395.935	3.64
396.295	3.64
396.655	3.65
397.015	3.65
397.376	3.64
397.736	3.65
398.096	3.64
398.456	3.64
398.816	3.66
399.176	3.65
399.535	3.66
399.895	3.67
400.255	3.67
400.615	3.67
400.975	3.67
401.334	3.67
401.694	3.67
402.054	3.67
402.413	3.65
402.773	3.65
403.132	3.65
403.492	3.65
403.851	3.65
404.211	3.66
404.57	3.67
404.929	3.68
405.288	3.67
405.648	3.68
406.007	3.68
406.366	3.69
406.725	3.69
407.084	3.69
407.443	3.69
407.802	3.68
408.161	3.68
408.52	3.68
408.879	3.68
409.238	3.68
409.596	3.68
409.955	3.69
410.314	3.69
410.673	3.69
411.031	3.69
411.39	3.7
411.748	3.7
412.107	3.71
412.465	3.72
412.824	3.74
413.182	3.76
413.54	3.77
413.899	3.79
414.257	3.82
414.615	3.85
414.974	3.88
415.332	3.92
415.69	3.96
416.048	3.98
416.406	4.02
416.764	4.05
417.122	4.08
417.48	4.1
417.838	4.13
418.195	4.15
418.553	4.17
418.911	4.19
419.269	4.19
419.626	4.19
419.984	4.18
420.342	4.17
420.699	4.15
421.057	4.13
421.414	4.12
421.772	4.11
422.129	4.1
422.486	4.1
422.844	4.1
423.201	4.1
423.558	4.1
423.915	4.1
424.273	4.09
424.63	4.1
424.987	4.1
425.344	4.1
425.701	4.1
426.058	4.1
426.415	4.1
426.772	4.1
427.128	4.1
427.485	4.09
427.842	4.08
428.199	4.07
428.555	4.06
428.912	4.04
429.269	4.02
429.625	4.01
429.982	3.98
430.338	3.96
430.695	3.94
431.051	3.91
431.407	3.89
431.764	3.88
432.12	3.85
432.476	3.84
432.832	3.84
433.189	3.84
433.545	3.84
433.901	3.85
434.257	3.87
434.613	3.89
434.969	3.92
435.325	3.94
435.681	3.98
436.036	3.99
436.392	4.01
436.748	4.01
437.104	4.02
437.459	4.03
437.815	4.05
438.171	4.07
438.526	4.09
438.882	4.12
439.237	4.14
439.593	4.17
439.948	4.2
440.304	4.23
440.659	4.25
441.014	4.27
441.369	4.3
441.725	4.31
442.08	4.33
442.435	4.33
442.79	4.34
443.145	4.34
443.5	4.34
443.855	4.34
444.21	4.33
444.565	4.33
444.92	4.32
445.275	4.31
445.629	4.3
445.984	4.3
446.339	4.3
446.693	4.3
447.048	4.28
447.403	4.27
447.757	4.25
448.112	4.23
448.466	4.21
448.82	4.2
449.175	4.18
449.529	4.17
449.883	4.16
450.238	4.13
450.592	4.13
450.946	4.13
451.3	4.13
451.654	4.14
452.008	4.14
452.362	4.14
452.716	4.14
453.07	4.14
453.424	4.14
453.778	4.13
454.132	4.12
454.486	4.11
454.839	4.09
455.193	4.07
455.547	4.06
455.9	4.03
456.254	4.01
456.607	3.98
456.961	3.96
457.314	3.95
457.668	3.94
458.021	3.93
458.375	3.93
458.728	3.93
459.081	3.94
459.434	3.95
459.787	3.95
460.141	3.96
460.494	3.96
460.847	3.97
461.2	3.97
461.553	3.98
461.906	3.98
462.259	3.99
462.611	3.99
462.964	4
463.317	4
463.67	4
464.022	4
464.375	4
464.728	4
465.08	4
465.433	4
465.785	4
466.138	3.98
466.49	3.97
466.843	3.95
467.195	3.94
467.547	3.92
467.899	3.9
468.252	3.87
468.604	3.85
468.956	3.83
469.308	3.82
469.66	3.82
470.012	3.81
470.364	3.81
470.716	3.82
471.068	3.83
471.42	3.86
471.772	3.87
472.123	3.89
472.475	3.9
472.827	3.91
473.178	3.91
473.53	3.92
473.882	3.93
474.233	3.95
474.585	3.98
474.936	4.04
475.288	4.12
475.639	4.22
475.99	4.36
476.342	4.5
476.693	4.65
477.044	4.81
477.395	4.97
477.746	5.13
478.097	5.3
478.448	5.46
478.8	5.62
479.15	5.77
479.501	5.91
479.852	6.04
480.203	6.16
480.554	6.27
480.905	6.38
481.255	6.49
481.606	6.59
481.957	6.67
482.307	6.76
482.658	6.85
483.009	6.93
483.359	7.01
483.709	7.08
484.06	7.15
484.41	7.23
484.761	7.29
485.111	7.36
485.461	7.42
485.811	7.48
486.162	7.53
486.512	7.58
486.862	7.61
487.212	7.64
487.562	7.66
487.912	7.67
488.262	7.67
488.612	7.67
488.961	7.65
489.311	7.62
489.661	7.55
490.011	7.47
490.36	7.37
490.71	7.25
491.06	7.11
491.409	6.98
491.759	6.84
492.108	6.69
492.458	6.54
492.807	6.39
493.157	6.23
493.506	6.07
493.855	5.93
494.204	5.8
494.554	5.68
494.903	5.56
495.252	5.45
495.601	5.34
495.95	5.23
496.299	5.13
496.648	5.04
496.997	4.95
497.346	4.87
497.695	4.79
498.043	4.71
498.392	4.64
498.741	4.56
499.09	4.49
499.438	4.42
499.787	4.36
500.135	4.29
500.484	4.24
500.832	4.2
501.181	4.16
501.529	4.13
501.878	4.12
502.226	4.11
502.574	4.11
502.923	4.1
503.271	4.11
503.619	4.11
503.967	4.12
504.315	4.12
504.663	4.12
505.011	4.12
505.359	4.12
505.707	4.12
506.055	4.12
506.403	4.12
506.751	4.13
507.098	4.14
507.446	4.15
507.794	4.16
508.141	4.18
508.489	4.2
508.837	4.22
509.184	4.24
509.531	4.25
509.879	4.27
510.226	4.29
510.574	4.31
510.921	4.33
511.268	4.35
511.616	4.37
511.963	4.39
512.31	4.42
512.657	4.44
513.004	4.47
513.351	4.49
513.698	4.5
514.045	4.51
514.392	4.53
514.739	4.53
515.086	4.54
515.432	4.55
515.779	4.56
516.126	4.56
516.473	4.57
516.819	4.58
517.166	4.6
517.512	4.61
517.859	4.63
518.205	4.66
518.552	4.69
518.898	4.73
519.245	4.77
519.591	4.84
519.937	4.92
520.283	5.02
520.629	5.14
520.976	5.26
521.322	5.38
521.668	5.51
522.014	5.63
522.36	5.75
522.706	5.88
523.052	6
523.398	6.12
523.743	6.21
524.089	6.3
524.435	6.38
524.781	6.45
525.126	6.52
525.472	6.58
525.817	6.64
526.163	6.7
526.509	6.76
526.854	6.81
527.199	6.87
527.545	6.92
527.89	6.98
528.235	7.03
528.581	7.09
528.926	7.14
529.271	7.2
529.616	7.24
529.961	7.27
530.306	7.29
530.651	7.33
530.996	7.35
531.341	7.36
531.686	7.37
532.031	7.37
532.376	7.38
532.721	7.38
533.065	7.39
533.41	7.4
533.755	7.4
534.099	7.36
534.444	7.34
534.788	7.3
535.133	7.27
535.477	7.23
535.822	7.18
536.166	7.13
536.51	7.06
536.855	6.99
537.199	6.91
537.543	6.83
537.887	6.76
538.231	6.7
538.576	6.64
538.92	6.58
539.264	6.53
539.608	6.48
539.951	6.42
540.295	6.36
540.639	6.29
540.983	6.23
541.327	6.19
541.671	6.13
542.014	6.06
542.358	6.01
542.701	5.97
543.045	5.93
543.389	5.91
543.732	5.89
544.075	5.88
544.419	5.86
544.762	5.84
545.105	5.83
545.449	5.83
545.792	5.83
546.135	5.82
546.478	5.81
546.821	5.8
547.165	5.77
547.508	5.72
547.851	5.67
548.194	5.62
548.536	5.56
548.879	5.49
549.222	5.42
549.565	5.34
549.908	5.27
550.25	5.2
550.593	5.14
550.936	5.09
551.278	5.05
551.621	5.03
551.963	5
552.306	4.98
552.648	4.97
552.991	4.95
553.333	4.94
553.675	4.94
554.017	4.94
554.36	4.94
554.702	4.96
555.044	4.97
555.386	4.98
555.728	5
556.07	5.01
556.412	5.02
556.754	5.03
557.096	5.03
557.438	5.04
557.78	5.04
558.121	5.04
558.463	5.05
558.805	5.05
559.147	5.05
559.488	5.06
559.83	5.07
560.171	5.07
560.513	5.08
560.854	5.07
561.196	5.07
561.537	5.07
561.878	5.07
562.22	5.08
562.561	5.08
562.902	5.09
563.243	5.1
563.584	5.1
563.925	5.11
564.266	5.11
564.607	5.12
564.948	5.12
565.289	5.12
565.63	5.13
565.971	5.13
566.312	5.14
566.653	5.14
566.993	5.13
567.334	5.13
567.675	5.14
568.015	5.15
568.356	5.16
568.696	5.16
569.037	5.16
569.377	5.17
569.718	5.17
570.058	5.17
570.398	5.18
570.739	5.18
571.079	5.18
571.419	5.18
571.759	5.18
572.099	5.18
572.439	5.17
572.779	5.18
573.119	5.18
573.459	5.17
573.799	5.17
574.139	5.17
574.479	5.18
574.819	5.17
575.158	5.18
575.498	5.18
575.838	5.18
576.177	5.18
576.517	5.18
576.856	5.18
577.196	5.18
577.535	5.17
577.875	5.17
578.214	5.17
578.553	5.17
578.893	5.17
579.232	5.17
579.571	5.17
579.91	5.16
580.25	5.16
580.589	5.16
580.928	5.16
581.267	5.16
581.606	5.15
581.945	5.15
582.283	5.15
582.622	5.15
582.961	5.15
583.3	5.15
583.639	5.14
583.977	5.15
584.316	5.15
584.654	5.16
584.993	5.16
585.332	5.15
585.67	5.15
586.008	5.15
586.347	5.15
586.685	5.16
587.024	5.16
587.362	5.16
587.7	5.17
588.038	5.18
588.376	5.18
588.715	5.18
589.053	5.19
589.391	5.19
589.729	5.19
590.067	5.19
590.404	5.19
590.742	5.19
591.08	5.2
591.418	5.2
591.756	5.2
592.093	5.21
592.431	5.23
592.769	5.23
593.106	5.24
593.444	5.24
593.781	5.24
594.119	5.24
594.456	5.24
594.793	5.24
595.131	5.24
595.468	5.24
595.805	5.24
596.143	5.25
596.48	5.25
596.817	5.25
597.154	5.26
597.491	5.26
597.828	5.27
598.165	5.27
598.502	5.27
598.839	5.28
599.176	5.27
599.512	5.28
599.849	5.28
600.186	5.29
600.523	5.3
600.859	5.3
601.196	5.3
601.532	5.31
601.869	5.31
602.205	5.31
602.542	5.32
602.878	5.32
603.215	5.31
603.551	5.31
603.887	5.31
604.223	5.32
604.56	5.32
604.896	5.32
605.232	5.32
605.568	5.33
605.904	5.33
606.24	5.33
606.576	5.33
606.912	5.33
607.248	5.33
607.583	5.34
607.919	5.34
608.255	5.33
608.591	5.34
608.926	5.34
609.262	5.34
609.597	5.34
609.933	5.35
610.268	5.36
610.604	5.37
610.939	5.37
611.275	5.36
611.61	5.36
611.945	5.36
612.281	5.36
612.616	5.36
612.951	5.35
613.286	5.35
613.621	5.34
613.956	5.33
614.291	5.33
614.626	5.33
614.961	5.34
615.296	5.34
615.631	5.34
615.966	5.34
616.3	5.34
616.635	5.34
616.97	5.34
617.304	5.34
617.639	5.34
617.973	5.34
618.308	5.34
618.642	5.33
618.977	5.32
619.311	5.31
619.646	5.32
619.98	5.33
620.314	5.33
620.648	5.34
620.983	5.34
621.317	5.34
621.651	5.34
621.985	5.34
622.319	5.35
622.653	5.35
622.987	5.36
623.321	5.35
623.655	5.35
623.988	5.36
624.322	5.35
624.656	5.36
624.99	5.36
625.323	5.36
625.657	5.37
625.99	5.38
626.324	5.39
626.657	5.39
626.991	5.39
627.324	5.39
627.658	5.4
627.991	5.4
628.324	5.4
628.657	5.41
628.991	5.42
629.324	5.42
629.657	5.43
629.99	5.44
630.323	5.44
630.656	5.44
630.989	5.44
631.322	5.45
631.655	5.45
631.987	5.44
632.32	5.45
632.653	5.46
632.986	5.47
633.318	5.46
633.651	5.46
633.984	5.46
634.316	5.47
634.649	5.46
634.981	5.48
635.313	5.47
635.646	5.47
635.978	5.46
636.31	5.46
636.643	5.45
636.975	5.46
637.307	5.46
637.639	5.46
637.971	5.47
638.303	5.47
638.635	5.47
638.967	5.47
639.299	5.46
639.631	5.47
639.963	5.48
640.295	5.49
640.626	5.5
640.958	5.51
641.29	5.51
641.621	5.51
641.953	5.52
642.285	5.52
642.616	5.53
642.948	5.53
643.279	5.54
643.61	5.53
643.942	5.52
644.273	5.52
644.604	5.52
644.936	5.52
645.267	5.53
645.598	5.54
645.929	5.55
646.26	5.55
646.591	5.55
646.922	5.55
647.253	5.55
647.584	5.54
647.915	5.55
648.245	5.56
648.576	5.56
648.907	5.56
649.238	5.56
649.568	5.56
649.899	5.56
650.229	5.57
650.56	5.58
650.89	5.6
651.221	5.6
651.551	5.61
651.882	5.62
652.212	5.63
652.542	5.63
652.872	5.64
653.203	5.66
653.533	5.66
653.863	5.65
654.193	5.65
654.523	5.66
654.853	5.65
655.183	5.66
655.513	5.67
655.843	5.67
656.172	5.68
656.502	5.68
656.832	5.67
657.162	5.67
657.491	5.68
657.821	5.68
658.15	5.68
658.48	5.67
658.809	5.66
659.139	5.67
659.468	5.68
659.798	5.69
660.127	5.69
660.456	5.72
660.785	5.73
661.115	5.74
661.444	5.75
661.773	5.76
662.102	5.76
662.431	5.76
662.76	5.77
663.089	5.77
663.418	5.78
663.747	5.78
664.076	5.78
664.404	5.78
664.733	5.79
665.062	5.81
665.39	5.81
665.719	5.81
666.048	5.81
666.376	5.8
666.705	5.79
667.033	5.77
667.362	5.76
667.69	5.76
668.018	5.76
668.347	5.76
668.675	5.75
669.003	5.76
669.331	5.76
669.659	5.76
669.987	5.77
670.315	5.77
670.643	5.79
670.971	5.8
671.299	5.8
671.627	5.8
671.955	5.8
672.283	5.8
672.61	5.8
672.938	5.81
673.266	5.82
673.593	5.82
673.921	5.82
674.249	5.84
674.576	5.86
674.904	5.87
675.231	5.87
675.558	5.9
675.886	5.91
676.213	5.91
676.54	5.92
676.867	5.92
677.195	5.92
677.522	5.94
677.849	5.96
678.176	5.96
678.503	5.97
678.83	5.97
679.157	5.96
679.484	5.96
679.81	5.95
680.137	5.96
680.464	5.98
680.791	5.98
681.117	5.97
681.444	5.96
681.771	5.95
682.097	5.95
682.424	5.94
682.75	5.92
683.077	5.92
683.403	5.93
683.729	5.92
684.056	5.92
684.382	5.92
684.708	5.93
685.034	5.95
685.36	5.95
685.686	5.97
686.012	5.99
686.339	6.01
686.664	6.01
686.99	6.02
687.316	6.03
687.642	6.05
687.968	6.06
688.294	6.07
688.619	6.07
688.945	6.07
689.271	6.08
689.596	6.08
689.922	6.11
690.247	6.13
690.573	6.13
690.898	6.16
691.224	6.16
691.549	6.18
691.874	6.17
692.2	6.19
692.525	6.21
692.85	6.2
693.175	6.21
693.5	6.23
693.825	6.24
694.15	6.24
694.475	6.24
694.8	6.25
695.125	6.26
695.45	6.31
695.775	6.32
696.099	6.33
696.424	6.34
696.749	6.35
697.073	6.37
697.398	6.37
697.723	6.37
698.047	6.37
698.372	6.37
698.696	6.36
699.02	6.36
699.345	6.36
699.669	6.36
699.993	6.35
700.318	6.34
700.642	6.34
700.966	6.34
701.29	6.33
701.614	6.34
701.938	6.34
702.262	6.35
702.586	6.36
702.91	6.37
703.234	6.37
703.557	6.36
703.881	6.35
704.205	6.37
704.529	6.4
704.852	6.38
705.176	6.39
705.499	6.42
705.823	6.42
706.146	6.43
706.47	6.44
706.793	6.46
707.117	6.58
707.44	6.59
707.763	6.57
708.086	6.57
708.409	6.56
708.733	6.54
709.056	6.54
709.379	6.54
709.702	6.55
710.025	6.55
710.348	6.39
710.671	6.38
710.993	6.39
711.316	6.37
711.639	6.4
711.962	6.4
712.284	6.41
712.607	6.43
712.93	6.44
713.252	6.47
713.575	6.46
713.897	6.45
714.22	6.46
714.542	6.5
714.864	6.56
715.187	6.59
715.509	6.59
715.831	6.59
716.153	6.6
716.475	6.57
716.798	6.56
717.12	6.74
717.442	6.74
717.764	6.7
718.085	6.62
718.407	6.62
718.729	6.59
719.051	6.61
719.373	6.63
719.695	6.62
720.016	6.59
720.338	6.51
720.659	6.54
720.981	6.56
721.302	6.57
721.624	6.58
721.945	6.57
722.267	6.56
722.588	6.56
722.909	6.59
723.231	6.62
723.552	6.63
723.873	6.66
724.194	6.65
724.515	6.67
724.836	6.78
725.157	6.78
725.478	6.79
725.799	6.8
726.12	6.79
726.441	6.8
726.762	6.83
727.083	6.82
727.403	6.83
727.724	6.79
728.045	6.72
728.365	6.74
728.686	6.79
729.006	6.79
729.327	6.81
729.647	6.81
729.967	6.81
730.288	6.84
730.608	6.86
730.928	6.89
731.249	6.9
731.569	6.92
731.889	6.92
732.209	6.94
732.529	6.94
732.849	6.95
733.169	6.99
733.489	6.98
733.809	6.99
734.129	6.99
734.448	7.01
734.768	7.01
735.088	7.01
735.408	7
735.727	7.02
736.047	7.04
736.366	7.05
736.686	7.07
737.005	7.06
737.325	7.05
737.644	7.07
737.963	7.06
738.283	7.08
738.602	7.09
738.921	7.1
739.24	7.09
739.56	7.09
739.879	7.09
740.198	7.1
740.517	7.1
740.836	7.11
741.155	7.11
741.473	7.15
741.792	7.15
742.111	7.16
742.43	7.16
742.748	7.16
743.067	7.14
743.386	7.16
743.704	7.17
744.023	7.2
744.341	7.2
744.66	7.23
744.978	7.19
745.297	7.19
745.615	7.17
745.933	7.19
746.252	7.16
746.57	7.11
746.888	7.12
747.206	7.1
747.524	7.11
747.842	7.17
748.16	7.19
748.478	7.21
748.796	7.16
749.114	7.13
749.432	7.12
749.749	7.14
750.067	7.15
750.385	7.17
750.703	7.15
751.02	7.15
751.338	7.14
751.655	7.23
751.973	7.23
752.29	7.22
752.608	7.26
752.925	7.29
753.242	7.38
753.56	7.41
753.877	7.37
754.194	7.45
754.511	7.45
754.828	7.41
755.145	7.46
755.462	7.5
755.779	7.5
756.096	7.53
756.413	7.52
756.73	7.47
757.047	7.48
757.364	7.49
757.68	7.52
757.997	7.51
758.314	7.53
758.63	7.54
758.947	7.58
759.264	7.58
759.58	7.6
759.896	7.59
760.213	7.64
760.529	7.64
760.846	7.59
761.162	7.59
761.478	7.56
761.794	7.57
762.11	7.58
762.426	7.64
762.743	7.62
763.059	7.7
763.375	7.74
763.69	7.77
764.006	7.79
764.322	7.81
764.638	7.82
764.954	7.85
765.27	7.88
765.585	7.87
765.901	7.89
766.216	7.75
766.532	7.74
766.848	7.75
767.163	7.79
767.478	7.85
767.794	7.88
768.109	7.89
768.424	7.88
768.74	7.93
769.055	7.94
769.37	7.99
769.685	8.01
770	8
770.315	8.02
770.63	7.94
770.945	7.88
771.26	7.87
771.575	7.87
771.89	7.83
772.205	7.88
772.52	7.87
772.834	8.06
773.149	8.09
773.464	8.04
773.778	8.06
774.093	8.11
774.407	8.18
774.722	8.2
775.036	8.2
775.351	8.15
775.665	8.14
775.979	8.01
776.293	8
776.608	8
776.922	8
777.236	8.11
777.55	8.16
777.864	8.15
778.178	8.18
778.492	8.16
778.806	8.08
779.12	8.12
779.434	8.12
779.747	8.06
780.061	8.15
780.375	8.06
780.689	7.99
781.002	7.99
781.316	8.01
781.629	8.02
781.943	8.11
782.256	8.14
782.57	8.21
782.883	8.21
783.196	8.14
783.51	8.2
783.823	8.27
784.136	8.25
784.449	8.3
784.762	8.35
785.075	8.4
785.388	8.34
785.701	8.3
786.014	8.31
786.327	8.36
786.64	8.34
786.953	8.36
787.266	8.41
787.578	8.42
787.891	8.46
788.204	8.45
788.516	8.49
788.829	8.53
789.141	8.5
789.454	8.52
789.766	8.53
790.079	8.52
790.391	8.53
790.703	8.63
791.016	8.51
791.328	8.53
791.64	8.6
791.952	8.63
792.264	8.64
792.576	8.7
792.888	8.72
793.2	8.72
793.512	8.8
793.824	8.74
794.136	8.7
794.448	8.79
794.76	8.77
795.071	8.79
795.383	8.75
795.695	8.89
796.006	9.03
796.318	9.04
796.629	9.03
796.941	9.04
797.252	8.99
797.564	9.02
797.875	8.92
798.186	8.89
798.497	8.91
798.809	8.8
799.12	8.76
799.431	8.77
799.742	8.77
800.053	8.7
800.364	8.82
800.675	8.79
800.986	8.79
801.297	8.89
801.608	8.88
801.918	8.89
802.229	8.88
802.54	8.86
802.851	8.83
803.161	8.82
803.472	8.83
803.782	8.8
804.093	8.83
804.403	8.77
804.714	8.87
805.024	8.86
805.334	8.94
805.645	8.92
805.955	8.97
806.265	8.93
806.575	8.98
806.885	8.91
807.195	8.85
807.505	8.82
807.815	8.77
808.125	8.85
808.435	8.83
808.745	8.81
809.055	8.82
809.365	8.94
809.674	8.97
809.984	9.04
810.294	9.08
810.603	9.1
810.913	9.3
811.222	9.27
811.532	9.32
811.841	9.37
812.151	9.41
812.46	9.39
812.769	9.44
813.079	9.44
813.388	9.52
813.697	9.47
814.006	9.38
814.315	9.45
814.624	9.48
814.933	9.45
815.242	9.39
815.551	9.47
815.86	9.39
816.169	9.42
816.478	9.34
816.786	9.31
817.095	9.3
817.404	9.33
817.712	9.37
818.021	9.34
818.33	9.36
818.638	9.39
818.947	9.39
819.255	9.38
819.563	9.42
819.872	9.45
820.18	9.49
820.488	9.51
820.796	9.48
821.105	9.45
821.413	9.46
821.721	9.48
822.029	9.5
822.337	9.53
822.645	9.52
822.953	9.5
823.26	9.54
823.568	9.57
823.876	9.56
824.184	9.57
824.491	9.56
824.799	9.55
825.107	9.56
825.414	9.57
825.722	9.58
826.029	9.57
826.337	9.59
826.644	9.59
826.951	9.61
827.259	9.62
827.566	9.65
827.873	9.68
828.18	9.65
828.488	9.66
828.795	9.66
829.102	9.71
829.409	9.75
829.716	9.75
830.023	9.75
830.329	9.78
830.636	9.82
830.943	9.89
831.25	9.92
831.557	9.92
831.863	9.97
832.17	9.98
832.476	10.01
832.783	10.01
833.089	10.02
833.396	9.99
833.702	10.01
834.009	9.94
834.315	9.93
834.621	10
834.928	10
835.234	10.03
835.54	10.08
835.846	10.16
836.152	10.14
836.458	10.15
836.764	10.1
837.07	10.13
837.376	10.04
837.682	9.91
837.988	9.97
838.293	9.82
838.599	9.88
838.905	9.82
839.211	9.86
839.516	9.89
839.822	10
840.127	9.97
840.433	10.01
840.738	10
841.044	10.01
841.349	10.08
841.654	10.12
841.959	10.15
842.265	10.15
842.57	10.16
842.875	10.2
843.18	10.32
843.485	10.36
843.79	10.5
844.095	10.6
844.4	10.43
844.705	10.6
845.01	10.58
845.315	10.5
845.619	10.47
845.924	10.34
846.229	10.18
846.533	10.27
846.838	10.35
847.142	10.12
847.447	10.16
847.751	10.01
848.056	10.04
848.36	9.83
848.664	9.78
848.969	9.7
849.273	9.6
849.577	9.4
849.881	9.32
850.185	9.33
850.489	9.66
850.794	10.01
851.097	9.84
851.401	10.01
851.705	10.11
852.009	10.17
852.313	10.1
852.617	10.29
852.92	10.28
853.224	10.25
853.528	10.14
853.831	10.13
854.135	9.96
854.438	10
854.742	10.13
855.045	10.19
855.349	10.32
855.652	10.47
855.955	10.44
856.259	10.65
856.562	10.88
856.865	10.75
857.168	10.67
857.471	10.66
857.774	10.69
858.077	10.34
858.38	10.47
858.683	10.59
858.986	10.61
859.289	10.88
859.592	10.98
859.894	11.26
860.197	11.43
860.5	11.3
860.802	11.56
861.105	11.5
861.407	11.62
861.71	11.6
862.012	11.55
862.315	11.74
862.617	11.69
862.919	11.26
863.222	11.24
863.524	11.43
863.826	11.6
864.128	11.72
864.43	11.64
864.732	11.57
865.034	11.66
865.336	11.57
865.638	11.42
865.94	11.27
866.242	11.1
866.544	10.61
866.846	10.94
867.147	10.68
867.449	10.49
867.751	10.63
868.052	10.64
868.354	10.46
868.655	10.32
868.957	10.46
869.258	10.68
869.56	10.65
869.861	10.87
870.162	10.63
870.463	10.73
870.765	10.78
871.066	10.57
871.367	10.42
871.668	10.47
871.969	10.55
872.27	10.45
872.571	10.43
872.872	10.83
873.173	10.51
873.473	10.84
873.774	11.01
874.075	11.04
874.376	11.29
874.676	11.18
874.977	11.22
875.277	10.99
875.578	10.98
875.878	10.58
876.179	10.64
876.479	10.46
876.78	10.58
877.08	10.58
877.38	10.56
877.68	10.8
877.981	10.83
878.281	10.92
878.581	11.12
