Data from UWBM109429_Reflection_00008.txt Node
Date: Sun May 02 13:54:28 EDT 2021
User: vgr7
Spectrometer: USB2G7710
Scans to average: 10
Trigger mode: 4
Integration Time (sec): 1.000000E-1
Electric dark correction enabled: true
Boxcar width: 20
XAxis mode: Wavelengths
Number of Pixels in Spectrum: 2048
>>>>>Begin Spectral Data<<<<<
177.721	86.77
178.105	64.18
178.488	78.16
178.871	70.51
179.254	62.55
179.636	30.32
180.019	24.21
180.402	23.84
180.785	25.41
181.168	28.66
181.55	23.48
181.933	26.7
182.316	25.5
182.698	24.26
183.081	24.69
183.463	21.76
183.846	21.45
184.228	22.87
184.611	22.72
184.993	19.74
185.376	18.7
185.758	22.04
186.14	22.07
186.522	23.68
186.904	22.83
187.287	23.18
187.669	24.46
188.051	25.86
188.433	24.97
188.815	19.03
189.197	17.64
189.579	15.65
189.961	14.4
190.342	11.35
190.724	11.88
191.106	13.28
191.488	14.25
191.869	13.57
192.251	13.39
192.633	11.47
193.014	13.16
193.396	10.82
193.777	12.3
194.159	11.79
194.54	9.94
194.922	9.08
195.303	11.33
195.684	12.16
196.065	10.95
196.447	11.69
196.828	10.46
197.209	10.25
197.59	7.75
197.971	7.33
198.352	8.52
198.733	8.63
199.114	10.69
199.495	12.01
199.876	11.63
200.257	12.04
200.638	12.2
201.018	14.3
201.399	15.09
201.78	16.13
202.16	14.59
202.541	14.11
202.922	13.97
203.302	14.45
203.683	15.11
204.063	16.13
204.444	16.99
204.824	17.39
205.204	17.38
205.585	18.28
205.965	19.77
206.345	19.76
206.725	19.81
207.106	18.31
207.486	17.84
207.866	18.84
208.246	18.39
208.626	16.52
209.006	17.01
209.386	16
209.766	14.89
210.145	15.66
210.525	16.62
210.905	16.65
211.285	15.39
211.664	15.91
212.044	14.95
212.424	15.77
212.803	15.85
213.183	15.92
213.562	17.09
213.942	16.66
214.321	17.17
214.701	15.75
215.08	16.42
215.459	17.23
215.838	16.09
216.218	16.25
216.597	15.19
216.976	14.69
217.355	13.58
217.734	14.68
218.113	15.49
218.492	14.41
218.871	13.95
219.25	13.62
219.629	12.4
220.008	12.48
220.387	11.69
220.766	12.48
221.144	12.54
221.523	12.36
221.902	11.98
222.28	11.4
222.659	11.75
223.037	11.44
223.416	10.47
223.794	10.74
224.173	11.34
224.551	10.39
224.929	11.28
225.308	11.79
225.686	11.35
226.064	10.77
226.442	10.8
226.821	11.11
227.199	11.34
227.577	10.85
227.955	10.8
228.333	10.87
228.711	10.4
229.089	9.43
229.467	8.8
229.845	8.45
230.222	8.68
230.6	8.29
230.978	7.91
231.356	7.75
231.733	7.64
232.111	7.4
232.488	7.25
232.866	7.15
233.243	6.95
233.621	6.89
233.998	6.97
234.376	6.9
234.753	6.46
235.13	6.67
235.508	6.72
235.885	6.6
236.262	6.48
236.639	6.19
237.016	6.12
237.393	6.12
237.77	6.09
238.147	6
238.524	6.01
238.901	5.9
239.278	5.81
239.655	5.76
240.032	5.75
240.409	5.66
240.785	5.59
241.162	5.6
241.539	5.51
241.915	5.49
242.292	5.47
242.668	5.42
243.045	5.42
243.421	5.37
243.798	5.38
244.174	5.41
244.551	5.43
244.927	5.47
245.303	5.47
245.679	5.44
246.056	5.37
246.432	5.38
246.808	5.37
247.184	5.4
247.56	5.41
247.936	5.38
248.312	5.35
248.688	5.37
249.064	5.35
249.44	5.33
249.815	5.28
250.191	5.26
250.567	5.24
250.943	5.22
251.318	5.2
251.694	5.17
252.069	5.17
252.445	5.14
252.82	5.06
253.196	5.01
253.571	4.98
253.947	4.95
254.322	4.92
254.697	4.91
255.073	4.87
255.448	4.88
255.823	4.82
256.198	4.81
256.573	4.8
256.948	4.8
257.323	4.77
257.698	4.72
258.073	4.68
258.448	4.66
258.823	4.63
259.198	4.59
259.573	4.57
259.948	4.57
260.322	4.53
260.697	4.5
261.072	4.48
261.446	4.47
261.821	4.44
262.195	4.44
262.57	4.41
262.944	4.41
263.319	4.4
263.693	4.4
264.067	4.36
264.442	4.33
264.816	4.32
265.19	4.31
265.564	4.31
265.938	4.29
266.313	4.29
266.687	4.29
267.061	4.28
267.435	4.28
267.809	4.27
268.183	4.29
268.556	4.27
268.93	4.28
269.304	4.27
269.678	4.27
270.051	4.26
270.425	4.24
270.799	4.21
271.172	4.23
271.546	4.24
271.919	4.23
272.293	4.22
272.666	4.21
273.04	4.22
273.413	4.27
273.787	4.3
274.16	4.31
274.533	4.32
274.906	4.32
275.279	4.29
275.653	4.31
276.026	4.31
276.399	4.31
276.772	4.34
277.145	4.34
277.518	4.33
277.891	4.34
278.263	4.33
278.636	4.34
279.009	4.34
279.382	4.34
279.755	4.36
280.127	4.37
280.5	4.39
280.872	4.42
281.245	4.42
281.617	4.41
281.99	4.41
282.362	4.39
282.735	4.38
283.107	4.38
283.479	4.37
283.852	4.39
284.224	4.4
284.596	4.39
284.968	4.39
285.34	4.4
285.713	4.41
286.085	4.44
286.457	4.43
286.829	4.42
287.201	4.43
287.572	4.45
287.944	4.46
288.316	4.45
288.688	4.45
289.06	4.44
289.431	4.45
289.803	4.46
290.175	4.47
290.546	4.49
290.918	4.51
291.289	4.52
291.661	4.54
292.032	4.53
292.403	4.55
292.775	4.57
293.146	4.57
293.517	4.6
293.889	4.6
294.26	4.63
294.631	4.66
295.002	4.68
295.373	4.7
295.744	4.71
296.115	4.72
296.486	4.76
296.857	4.8
297.228	4.82
297.599	4.86
297.97	4.9
298.34	4.92
298.711	4.96
299.082	4.98
299.452	5
299.823	5.03
300.194	5.07
300.564	5.09
300.935	5.12
301.305	5.14
301.676	5.18
302.046	5.22
302.416	5.26
302.787	5.27
303.157	5.31
303.527	5.36
303.897	5.4
304.267	5.44
304.637	5.48
305.008	5.51
305.378	5.56
305.748	5.6
306.117	5.62
306.487	5.67
306.857	5.72
307.227	5.77
307.597	5.81
307.967	5.85
308.336	5.89
308.706	5.92
309.076	5.95
309.445	5.99
309.815	6.02
310.184	6.06
310.554	6.09
310.923	6.15
311.293	6.18
311.662	6.2
312.031	6.22
312.401	6.26
312.77	6.29
313.139	6.32
313.508	6.36
313.877	6.4
314.246	6.44
314.616	6.48
314.985	6.51
315.353	6.54
315.722	6.57
316.091	6.62
316.46	6.65
316.829	6.69
317.198	6.74
317.567	6.77
317.935	6.82
318.304	6.87
318.672	6.91
319.041	6.95
319.41	6.98
319.778	7.03
320.147	7.08
320.515	7.11
320.883	7.15
321.252	7.19
321.62	7.23
321.988	7.26
322.357	7.29
322.725	7.32
323.093	7.36
323.461	7.38
323.829	7.42
324.197	7.46
324.565	7.48
324.933	7.51
325.301	7.52
325.669	7.55
326.037	7.56
326.405	7.6
326.772	7.62
327.14	7.64
327.508	7.67
327.875	7.69
328.243	7.71
328.61	7.72
328.978	7.74
329.346	7.75
329.713	7.78
330.08	7.82
330.448	7.84
330.815	7.86
331.182	7.87
331.55	7.89
331.917	7.91
332.284	7.91
332.651	7.93
333.018	7.95
333.385	7.98
333.752	8
334.119	8.03
334.486	8.07
334.853	8.08
335.22	8.11
335.587	8.14
335.954	8.16
336.32	8.18
336.687	8.2
337.054	8.21
337.42	8.23
337.787	8.25
338.153	8.26
338.52	8.27
338.886	8.28
339.253	8.31
339.619	8.33
339.986	8.32
340.352	8.34
340.718	8.35
341.084	8.37
341.451	8.37
341.817	8.38
342.183	8.4
342.549	8.41
342.915	8.42
343.281	8.43
343.647	8.44
344.013	8.44
344.379	8.46
344.745	8.47
345.11	8.47
345.476	8.49
345.842	8.5
346.208	8.51
346.573	8.51
346.939	8.51
347.304	8.53
347.67	8.53
348.035	8.53
348.401	8.53
348.766	8.53
349.132	8.53
349.497	8.53
349.862	8.53
350.228	8.53
350.593	8.53
350.958	8.52
351.323	8.53
351.688	8.52
352.053	8.53
352.418	8.52
352.783	8.53
353.148	8.51
353.513	8.52
353.878	8.5
354.243	8.48
354.608	8.48
354.972	8.48
355.337	8.48
355.702	8.46
356.066	8.45
356.431	8.44
356.795	8.42
357.16	8.4
357.524	8.4
357.889	8.39
358.253	8.37
358.618	8.35
358.982	8.34
359.346	8.33
359.71	8.31
360.075	8.3
360.439	8.28
360.803	8.25
361.167	8.24
361.531	8.22
361.895	8.2
362.259	8.17
362.623	8.15
362.987	8.13
363.351	8.1
363.714	8.07
364.078	8.05
364.442	8.03
364.806	8
365.169	7.98
365.533	7.95
365.896	7.93
366.26	7.9
366.623	7.87
366.987	7.84
367.35	7.8
367.714	7.77
368.077	7.74
368.44	7.7
368.803	7.67
369.167	7.64
369.53	7.59
369.893	7.54
370.256	7.5
370.619	7.45
370.982	7.42
371.345	7.37
371.708	7.34
372.071	7.31
372.434	7.26
372.797	7.22
373.159	7.18
373.522	7.15
373.885	7.11
374.247	7.06
374.61	7.02
374.973	6.98
375.335	6.93
375.698	6.89
376.06	6.85
376.423	6.81
376.785	6.77
377.147	6.73
377.51	6.7
377.872	6.65
378.234	6.61
378.596	6.57
378.958	6.52
379.321	6.48
379.683	6.45
380.045	6.41
380.407	6.38
380.769	6.34
381.13	6.31
381.492	6.27
381.854	6.24
382.216	6.2
382.578	6.17
382.939	6.13
383.301	6.1
383.663	6.07
384.024	6.04
384.386	6.02
384.747	5.99
385.109	5.96
385.47	5.93
385.832	5.9
386.193	5.87
386.554	5.83
386.916	5.8
387.277	5.76
387.638	5.74
387.999	5.72
388.36	5.69
388.721	5.67
389.082	5.65
389.443	5.64
389.804	5.61
390.165	5.59
390.526	5.58
390.887	5.55
391.248	5.53
391.609	5.51
391.969	5.5
392.33	5.48
392.691	5.46
393.051	5.44
393.412	5.42
393.772	5.4
394.133	5.38
394.493	5.35
394.854	5.33
395.214	5.3
395.574	5.28
395.935	5.26
396.295	5.24
396.655	5.22
397.015	5.2
397.376	5.17
397.736	5.15
398.096	5.13
398.456	5.11
398.816	5.1
399.176	5.07
399.535	5.05
399.895	5.04
400.255	5.02
400.615	5
400.975	4.99
401.334	4.98
401.694	4.96
402.054	4.95
402.413	4.93
402.773	4.91
403.132	4.9
403.492	4.88
403.851	4.87
404.211	4.86
404.57	4.85
404.929	4.84
405.288	4.82
405.648	4.81
406.007	4.81
406.366	4.8
406.725	4.79
407.084	4.78
407.443	4.77
407.802	4.76
408.161	4.76
408.52	4.75
408.879	4.75
409.238	4.74
409.596	4.74
409.955	4.73
410.314	4.73
410.673	4.72
411.031	4.72
411.39	4.72
411.748	4.71
412.107	4.72
412.465	4.72
412.824	4.74
413.182	4.76
413.54	4.78
413.899	4.81
414.257	4.83
414.615	4.87
414.974	4.9
415.332	4.93
415.69	4.97
416.048	5
416.406	5.04
416.764	5.07
417.122	5.09
417.48	5.12
417.838	5.15
418.195	5.17
418.553	5.19
418.911	5.2
419.269	5.2
419.626	5.19
419.984	5.18
420.342	5.16
420.699	5.13
421.057	5.11
421.414	5.08
421.772	5.06
422.129	5.05
422.486	5.04
422.844	5.03
423.201	5.03
423.558	5.02
423.915	5.01
424.273	5.01
424.63	5
424.987	5
425.344	5
425.701	4.99
426.058	4.98
426.415	4.98
426.772	4.98
427.128	4.97
427.485	4.95
427.842	4.94
428.199	4.91
428.555	4.89
428.912	4.87
429.269	4.83
429.625	4.8
429.982	4.77
430.338	4.73
430.695	4.7
431.051	4.66
431.407	4.64
431.764	4.62
432.12	4.59
432.476	4.58
432.832	4.57
433.189	4.57
433.545	4.57
433.901	4.59
434.257	4.61
434.613	4.64
434.969	4.67
435.325	4.7
435.681	4.75
436.036	4.77
436.392	4.79
436.748	4.81
437.104	4.82
437.459	4.84
437.815	4.86
438.171	4.89
438.526	4.91
438.882	4.95
439.237	4.99
439.593	5.03
439.948	5.07
440.304	5.11
440.659	5.14
441.014	5.15
441.369	5.18
441.725	5.2
442.08	5.22
442.435	5.23
442.79	5.24
443.145	5.24
443.5	5.24
443.855	5.24
444.21	5.24
444.565	5.24
444.92	5.23
445.275	5.22
445.629	5.21
445.984	5.19
446.339	5.18
446.693	5.17
447.048	5.15
447.403	5.13
447.757	5.1
448.112	5.07
448.466	5.04
448.82	5.01
449.175	4.98
449.529	4.95
449.883	4.93
450.238	4.9
450.592	4.89
450.946	4.88
451.3	4.88
451.654	4.88
452.008	4.88
452.362	4.89
452.716	4.89
453.07	4.89
453.424	4.88
453.778	4.87
454.132	4.85
454.486	4.84
454.839	4.82
455.193	4.8
455.547	4.78
455.9	4.75
456.254	4.73
456.607	4.7
456.961	4.67
457.314	4.64
457.668	4.63
458.021	4.63
458.375	4.62
458.728	4.62
459.081	4.62
459.434	4.63
459.787	4.64
460.141	4.65
460.494	4.66
460.847	4.67
461.2	4.68
461.553	4.68
461.906	4.69
462.259	4.7
462.611	4.7
462.964	4.71
463.317	4.72
463.67	4.73
464.022	4.75
464.375	4.75
464.728	4.76
465.08	4.77
465.433	4.78
465.785	4.77
466.138	4.76
466.49	4.75
466.843	4.73
467.195	4.71
467.547	4.69
467.899	4.66
468.252	4.64
468.604	4.61
468.956	4.6
469.308	4.58
469.66	4.58
470.012	4.58
470.364	4.59
470.716	4.59
471.068	4.61
471.42	4.64
471.772	4.66
472.123	4.68
472.475	4.69
472.827	4.71
473.178	4.72
473.53	4.73
473.882	4.75
474.233	4.78
474.585	4.82
474.936	4.89
475.288	4.99
475.639	5.12
475.99	5.27
476.342	5.43
476.693	5.61
477.044	5.79
477.395	5.98
477.746	6.18
478.097	6.37
478.448	6.56
478.8	6.75
479.15	6.93
479.501	7.09
479.852	7.23
480.203	7.38
480.554	7.51
480.905	7.64
481.255	7.76
481.606	7.88
481.957	7.99
482.307	8.1
482.658	8.2
483.009	8.3
483.359	8.39
483.709	8.48
484.06	8.56
484.41	8.65
484.761	8.73
485.111	8.81
485.461	8.88
485.811	8.95
486.162	9.01
486.512	9.07
486.862	9.11
487.212	9.14
487.562	9.16
487.912	9.18
488.262	9.18
488.612	9.17
488.961	9.15
489.311	9.1
489.661	9.03
490.011	8.93
490.36	8.82
490.71	8.68
491.06	8.54
491.409	8.38
491.759	8.22
492.108	8.05
492.458	7.88
492.807	7.7
493.157	7.52
493.506	7.35
493.855	7.2
494.204	7.05
494.554	6.9
494.903	6.78
495.252	6.65
495.601	6.54
495.95	6.42
496.299	6.31
496.648	6.22
496.997	6.13
497.346	6.04
497.695	5.96
498.043	5.89
498.392	5.82
498.741	5.76
499.09	5.7
499.438	5.65
499.787	5.6
500.135	5.56
500.484	5.53
500.832	5.51
501.181	5.51
501.529	5.53
501.878	5.55
502.226	5.59
502.574	5.63
502.923	5.69
503.271	5.74
503.619	5.8
503.967	5.86
504.315	5.92
504.663	5.98
505.011	6.04
505.359	6.11
505.707	6.18
506.055	6.25
506.403	6.33
506.751	6.41
507.098	6.5
507.446	6.59
507.794	6.69
508.141	6.79
508.489	6.9
508.837	7.02
509.184	7.13
509.531	7.25
509.879	7.38
510.226	7.53
510.574	7.68
510.921	7.84
511.268	8
511.616	8.17
511.963	8.34
512.31	8.52
512.657	8.7
513.004	8.88
513.351	9.05
513.698	9.21
514.045	9.36
514.392	9.51
514.739	9.66
515.086	9.8
515.432	9.94
515.779	10.08
516.126	10.22
516.473	10.38
516.819	10.56
517.166	10.75
517.512	10.95
517.859	11.18
518.205	11.42
518.552	11.68
518.898	11.97
519.245	12.29
519.591	12.67
519.937	13.12
520.283	13.65
520.629	14.21
520.976	14.81
521.322	15.43
521.668	16.07
522.014	16.72
522.36	17.37
522.706	18.01
523.052	18.64
523.398	19.23
523.743	19.79
524.089	20.29
524.435	20.77
524.781	21.24
525.126	21.7
525.472	22.16
525.817	22.6
526.163	23.04
526.509	23.48
526.854	23.91
527.199	24.34
527.545	24.76
527.89	25.21
528.235	25.65
528.581	26.07
528.926	26.47
529.271	26.84
529.616	27.21
529.961	27.57
530.306	27.91
530.651	28.23
530.996	28.52
531.341	28.79
531.686	29.05
532.031	29.29
532.376	29.56
532.721	29.86
533.065	30.18
533.41	30.52
533.755	30.84
534.099	31.12
534.444	31.37
534.788	31.6
535.133	31.81
535.477	31.99
535.822	32.16
536.166	32.29
536.51	32.36
536.855	32.38
537.199	32.38
537.543	32.37
537.887	32.39
538.231	32.44
538.576	32.5
538.92	32.54
539.264	32.57
539.608	32.58
539.951	32.58
540.295	32.57
540.639	32.54
540.983	32.49
541.327	32.43
541.671	32.34
542.014	32.29
542.358	32.25
542.701	32.28
543.045	32.37
543.389	32.49
543.732	32.63
544.075	32.79
544.419	32.95
544.762	33.13
545.105	33.33
545.449	33.54
545.792	33.75
546.135	33.97
546.478	34.14
546.821	34.27
547.165	34.35
547.508	34.36
547.851	34.34
548.194	34.27
548.536	34.16
548.879	34.02
549.222	33.86
549.565	33.7
549.908	33.54
550.25	33.4
550.593	33.32
550.936	33.32
551.278	33.35
551.621	33.43
551.963	33.52
552.306	33.64
552.648	33.78
552.991	33.95
553.333	34.14
553.675	34.37
554.017	34.61
554.36	34.89
554.702	35.2
555.044	35.55
555.386	35.94
555.728	36.37
556.07	36.75
556.412	37.13
556.754	37.45
557.096	37.71
557.438	37.96
557.78	38.22
558.121	38.47
558.463	38.73
558.805	38.98
559.147	39.25
559.488	39.5
559.83	39.76
560.171	40.01
560.513	40.25
560.854	40.5
561.196	40.73
561.537	40.97
561.878	41.2
562.22	41.42
562.561	41.64
562.902	41.86
563.243	42.07
563.584	42.29
563.925	42.5
564.266	42.71
564.607	42.92
564.948	43.12
565.289	43.32
565.63	43.52
565.971	43.72
566.312	43.91
566.653	44.1
566.993	44.28
567.334	44.47
567.675	44.64
568.015	44.83
568.356	44.99
568.696	45.15
569.037	45.3
569.377	45.46
569.718	45.61
570.058	45.75
570.398	45.89
570.739	46.02
571.079	46.14
571.419	46.27
571.759	46.39
572.099	46.5
572.439	46.62
572.779	46.75
573.119	46.86
573.459	46.97
573.799	47.06
574.139	47.18
574.479	47.28
574.819	47.39
575.158	47.49
575.498	47.6
575.838	47.71
576.177	47.8
576.517	47.9
576.856	48
577.196	48.1
577.535	48.19
577.875	48.28
578.214	48.37
578.553	48.46
578.893	48.55
579.232	48.64
579.571	48.72
579.91	48.81
580.25	48.9
580.589	48.98
580.928	49.07
581.267	49.17
581.606	49.25
581.945	49.33
582.283	49.44
582.622	49.53
582.961	49.64
583.3	49.74
583.639	49.82
583.977	49.91
584.316	50
584.654	50.09
584.993	50.2
585.332	50.29
585.67	50.38
586.008	50.48
586.347	50.56
586.685	50.64
587.024	50.73
587.362	50.82
587.7	50.91
588.038	51.01
588.376	51.1
588.715	51.2
589.053	51.3
589.391	51.4
589.729	51.49
590.067	51.58
590.404	51.68
590.742	51.77
591.08	51.86
591.418	51.95
591.756	52.03
592.093	52.1
592.431	52.17
592.769	52.25
593.106	52.32
593.444	52.39
593.781	52.46
594.119	52.52
594.456	52.59
594.793	52.65
595.131	52.71
595.468	52.78
595.805	52.85
596.143	52.92
596.48	53
596.817	53.06
597.154	53.14
597.491	53.21
597.828	53.29
598.165	53.37
598.502	53.43
598.839	53.5
599.176	53.56
599.512	53.62
599.849	53.68
600.186	53.74
600.523	53.8
600.859	53.87
601.196	53.92
601.532	53.97
601.869	54.02
602.205	54.08
602.542	54.12
602.878	54.17
603.215	54.22
603.551	54.27
603.887	54.31
604.223	54.36
604.56	54.4
604.896	54.45
605.232	54.48
605.568	54.52
605.904	54.56
606.24	54.6
606.576	54.63
606.912	54.66
607.248	54.69
607.583	54.72
607.919	54.76
608.255	54.79
608.591	54.81
608.926	54.84
609.262	54.88
609.597	54.9
609.933	54.92
610.268	54.94
610.604	54.97
610.939	54.98
611.275	55.01
611.61	55.04
611.945	55.06
612.281	55.08
612.616	55.11
612.951	55.12
613.286	55.15
613.621	55.17
613.956	55.19
614.291	55.21
614.626	55.23
614.961	55.27
615.296	55.29
615.631	55.31
615.966	55.32
616.3	55.35
616.635	55.38
616.97	55.41
617.304	55.41
617.639	55.44
617.973	55.46
618.308	55.49
618.642	55.51
618.977	55.55
619.311	55.59
619.646	55.62
619.98	55.67
620.314	55.72
620.648	55.76
620.983	55.81
621.317	55.84
621.651	55.86
621.985	55.91
622.319	55.95
622.653	55.99
622.987	56.03
623.321	56.05
623.655	56.07
623.988	56.11
624.322	56.11
624.656	56.15
624.99	56.18
625.323	56.19
625.657	56.21
625.99	56.24
626.324	56.26
626.657	56.3
626.991	56.31
627.324	56.33
627.658	56.36
627.991	56.38
628.324	56.4
628.657	56.43
628.991	56.45
629.324	56.48
629.657	56.5
629.99	56.52
630.323	56.54
630.656	56.56
630.989	56.59
631.322	56.61
631.655	56.62
631.987	56.64
632.32	56.66
632.653	56.68
632.986	56.7
633.318	56.72
633.651	56.73
633.984	56.73
634.316	56.76
634.649	56.76
634.981	56.78
635.313	56.81
635.646	56.84
635.978	56.85
636.31	56.86
636.643	56.87
636.975	56.9
637.307	56.91
637.639	56.94
637.971	56.98
638.303	56.99
638.635	57.01
638.967	57.02
639.299	57.04
639.631	57.07
639.963	57.09
640.295	57.1
640.626	57.14
640.958	57.17
641.29	57.19
641.621	57.21
641.953	57.22
642.285	57.25
642.616	57.26
642.948	57.28
643.279	57.31
643.61	57.33
643.942	57.35
644.273	57.37
644.604	57.39
644.936	57.42
645.267	57.46
645.598	57.48
645.929	57.5
646.26	57.51
646.591	57.54
646.922	57.56
647.253	57.58
647.584	57.6
647.915	57.61
648.245	57.64
648.576	57.65
648.907	57.67
649.238	57.67
649.568	57.69
649.899	57.71
650.229	57.72
650.56	57.73
650.89	57.76
651.221	57.76
651.551	57.79
651.882	57.8
652.212	57.81
652.542	57.83
652.872	57.85
653.203	57.87
653.533	57.9
653.863	57.92
654.193	57.93
654.523	57.95
654.853	57.96
655.183	57.98
655.513	58.01
655.843	58.02
656.172	58.04
656.502	58.06
656.832	58.06
657.162	58.07
657.491	58.06
657.821	58.08
658.15	58.08
658.48	58.11
658.809	58.11
659.139	58.13
659.468	58.14
659.798	58.16
660.127	58.16
660.456	58.18
660.785	58.2
661.115	58.22
661.444	58.24
661.773	58.25
662.102	58.27
662.431	58.27
662.76	58.28
663.089	58.3
663.418	58.31
663.747	58.32
664.076	58.35
664.404	58.36
664.733	58.38
665.062	58.37
665.39	58.38
665.719	58.4
666.048	58.42
666.376	58.44
666.705	58.44
667.033	58.45
667.362	58.48
667.69	58.48
668.018	58.5
668.347	58.5
668.675	58.52
669.003	58.54
669.331	58.56
669.659	58.56
669.987	58.58
670.315	58.59
670.643	58.63
670.971	58.66
671.299	58.68
671.627	58.68
671.955	58.68
672.283	58.69
672.61	58.69
672.938	58.7
673.266	58.73
673.593	58.74
673.921	58.76
674.249	58.77
674.576	58.77
674.904	58.79
675.231	58.8
675.558	58.81
675.886	58.83
676.213	58.85
676.54	58.84
676.867	58.85
677.195	58.89
677.522	58.9
677.849	58.9
678.176	58.93
678.503	58.94
678.83	58.96
679.157	58.95
679.484	58.97
679.81	58.98
680.137	58.99
680.464	59
680.791	59.02
681.117	59.04
681.444	59.03
681.771	59.05
682.097	59.05
682.424	59.05
682.75	59.05
683.077	59.07
683.403	59.08
683.729	59.09
684.056	59.09
684.382	59.11
684.708	59.12
685.034	59.13
685.36	59.15
685.686	59.16
686.012	59.17
686.339	59.19
686.664	59.19
686.99	59.19
687.316	59.2
687.642	59.18
687.968	59.2
688.294	59.2
688.619	59.23
688.945	59.23
689.271	59.24
689.596	59.26
689.922	59.28
690.247	59.28
690.573	59.28
690.898	59.27
691.224	59.29
691.549	59.31
691.874	59.34
692.2	59.38
692.525	59.4
692.85	59.42
693.175	59.43
693.5	59.45
693.825	59.45
694.15	59.44
694.475	59.45
694.8	59.45
695.125	59.48
695.45	59.49
695.775	59.51
696.099	59.5
696.424	59.51
696.749	59.54
697.073	59.55
697.398	59.56
697.723	59.57
698.047	59.58
698.372	59.59
698.696	59.6
699.02	59.6
699.345	59.62
699.669	59.63
699.993	59.64
700.318	59.64
700.642	59.65
700.966	59.67
701.29	59.68
701.614	59.69
701.938	59.67
702.262	59.7
702.586	59.7
702.91	59.7
703.234	59.73
703.557	59.74
703.881	59.74
704.205	59.77
704.529	59.79
704.852	59.8
705.176	59.78
705.499	59.78
705.823	59.81
706.146	59.81
706.47	59.81
706.793	59.81
707.117	59.82
707.44	59.85
707.763	59.86
708.086	59.89
708.409	59.9
708.733	59.9
709.056	59.9
709.379	59.93
709.702	59.93
710.025	59.92
710.348	59.92
710.671	59.93
710.993	59.95
711.316	59.95
711.639	59.96
711.962	59.98
712.284	60.02
712.607	60.04
712.93	60.03
713.252	60.04
713.575	60.08
713.897	60.1
714.22	60.12
714.542	60.14
714.864	60.15
715.187	60.18
715.509	60.2
715.831	60.22
716.153	60.22
716.475	60.22
716.798	60.23
717.12	60.24
717.442	60.25
717.764	60.24
718.085	60.25
718.407	60.29
718.729	60.29
719.051	60.3
719.373	60.32
719.695	60.35
720.016	60.37
720.338	60.4
720.659	60.42
720.981	60.44
721.302	60.45
721.624	60.44
721.945	60.47
722.267	60.48
722.588	60.49
722.909	60.53
723.231	60.53
723.552	60.57
723.873	60.58
724.194	60.58
724.515	60.59
724.836	60.6
725.157	60.61
725.478	60.6
725.799	60.62
726.12	60.63
726.441	60.63
726.762	60.61
727.083	60.59
727.403	60.58
727.724	60.59
728.045	60.62
728.365	60.65
728.686	60.64
729.006	60.65
729.327	60.67
729.647	60.68
729.967	60.68
730.288	60.66
730.608	60.68
730.928	60.7
731.249	60.69
731.569	60.66
731.889	60.69
732.209	60.71
732.529	60.71
732.849	60.73
733.169	60.75
733.489	60.75
733.809	60.72
734.129	60.73
734.448	60.76
734.768	60.77
735.088	60.77
735.408	60.81
735.727	60.84
736.047	60.83
736.366	60.83
736.686	60.79
737.005	60.83
737.325	60.82
737.644	60.83
737.963	60.86
738.283	60.88
738.602	60.86
738.921	60.83
739.24	60.86
739.56	60.84
739.879	60.89
740.198	60.94
740.517	60.95
740.836	60.94
741.155	60.96
741.473	60.92
741.792	60.92
742.111	60.9
742.43	60.9
742.748	60.9
743.067	60.94
743.386	60.97
743.704	60.98
744.023	60.98
744.341	60.98
744.66	61
744.978	60.99
745.297	60.96
745.615	60.94
745.933	60.92
746.252	60.89
746.57	60.88
746.888	60.89
747.206	60.88
747.524	60.88
747.842	60.89
748.16	60.89
748.478	60.83
748.796	60.77
749.114	60.81
749.432	60.83
749.749	60.88
750.067	60.86
750.385	60.88
750.703	60.87
751.02	60.87
751.338	60.86
751.655	60.91
751.973	60.94
752.29	60.91
752.608	60.96
752.925	60.95
753.242	60.91
753.56	60.89
753.877	60.91
754.194	60.9
754.511	60.95
754.828	60.92
755.145	61
755.462	61
755.779	61.05
756.096	61.08
756.413	61.09
756.73	61.08
757.047	61.07
757.364	61.08
757.68	61.12
757.997	61.17
758.314	61.2
758.63	61.23
758.947	61.25
759.264	61.27
759.58	61.29
759.896	61.33
760.213	61.38
760.529	61.4
760.846	61.4
761.162	61.4
761.478	61.39
761.794	61.45
762.11	61.47
762.426	61.45
762.743	61.43
763.059	61.43
763.375	61.44
763.69	61.44
764.006	61.44
764.322	61.45
764.638	61.45
764.954	61.46
765.27	61.5
765.585	61.47
765.901	61.48
766.216	61.5
766.532	61.51
766.848	61.51
767.163	61.52
767.478	61.47
767.794	61.52
768.109	61.49
768.424	61.52
768.74	61.49
769.055	61.46
769.37	61.45
769.685	61.47
770	61.5
770.315	61.49
770.63	61.46
770.945	61.42
771.26	61.42
771.575	61.41
771.89	61.41
772.205	61.42
772.52	61.41
772.834	61.38
773.149	61.37
773.464	61.34
773.778	61.35
774.093	61.37
774.407	61.38
774.722	61.32
775.036	61.26
775.351	61.28
775.665	61.31
775.979	61.33
776.293	61.32
776.608	61.37
776.922	61.31
777.236	61.26
777.55	61.26
777.864	61.25
778.178	61.26
778.492	61.3
778.806	61.3
779.12	61.28
779.434	61.29
779.747	61.27
780.061	61.24
780.375	61.29
780.689	61.27
781.002	61.23
781.316	61.2
781.629	61.19
781.943	61.21
782.256	61.2
782.57	61.22
782.883	61.2
783.196	61.21
783.51	61.21
783.823	61.21
784.136	61.22
784.449	61.24
784.762	61.27
785.075	61.27
785.388	61.3
785.701	61.3
786.014	61.24
786.327	61.29
786.64	61.29
786.953	61.29
787.266	61.33
787.578	61.39
787.891	61.45
788.204	61.47
788.516	61.41
788.829	61.42
789.141	61.39
789.454	61.38
789.766	61.37
790.079	61.41
790.391	61.38
790.703	61.37
791.016	61.33
791.328	61.29
791.64	61.33
791.952	61.35
792.264	61.31
792.576	61.35
792.888	61.32
793.2	61.29
793.512	61.35
793.824	61.38
794.136	61.38
794.448	61.37
794.76	61.37
795.071	61.34
795.383	61.33
795.695	61.38
796.006	61.42
796.318	61.41
796.629	61.41
796.941	61.39
797.252	61.37
797.564	61.35
797.875	61.34
798.186	61.34
798.497	61.31
798.809	61.38
799.12	61.34
799.431	61.36
799.742	61.35
800.053	61.32
800.364	61.34
800.675	61.32
800.986	61.37
801.297	61.4
801.608	61.34
801.918	61.38
802.229	61.39
802.54	61.46
802.851	61.45
803.161	61.46
803.472	61.49
803.782	61.48
804.093	61.51
804.403	61.43
804.714	61.44
805.024	61.47
805.334	61.43
805.645	61.48
805.955	61.52
806.265	61.43
806.575	61.4
806.885	61.5
807.195	61.55
807.505	61.53
807.815	61.57
808.125	61.54
808.435	61.49
808.745	61.51
809.055	61.53
809.365	61.54
809.674	61.54
809.984	61.57
810.294	61.55
810.603	61.58
810.913	61.57
811.222	61.6
811.532	61.54
811.841	61.55
812.151	61.52
812.46	61.55
812.769	61.55
813.079	61.54
813.388	61.58
813.697	61.53
814.006	61.56
814.315	61.58
814.624	61.55
814.933	61.5
815.242	61.49
815.551	61.48
815.86	61.48
816.169	61.47
816.478	61.55
816.786	61.62
817.095	61.66
817.404	61.62
817.712	61.65
818.021	61.7
818.33	61.68
818.638	61.66
818.947	61.65
819.255	61.67
819.563	61.65
819.872	61.67
820.18	61.71
820.488	61.75
820.796	61.8
821.105	61.82
821.413	61.84
821.721	61.87
822.029	61.86
822.337	61.86
822.645	61.85
822.953	61.88
823.26	61.86
823.568	61.86
823.876	61.86
824.184	61.87
824.491	61.88
824.799	61.89
825.107	61.88
825.414	61.89
825.722	61.88
826.029	61.89
826.337	61.88
826.644	61.9
826.951	61.9
827.259	61.91
827.566	61.92
827.873	61.93
828.18	61.93
828.488	61.94
828.795	61.93
829.102	61.91
829.409	61.89
829.716	61.9
830.023	61.93
830.329	61.9
830.636	61.88
830.943	61.91
831.25	61.93
831.557	61.97
831.863	61.98
832.17	61.93
832.476	61.91
832.783	61.9
833.089	61.85
833.396	61.83
833.702	61.8
834.009	61.78
834.315	61.72
834.621	61.78
834.928	61.79
835.234	61.79
835.54	61.73
835.846	61.73
836.152	61.73
836.458	61.72
836.764	61.72
837.07	61.69
837.376	61.68
837.682	61.65
837.988	61.66
838.293	61.71
838.599	61.63
838.905	61.64
839.211	61.55
839.516	61.52
839.822	61.51
840.127	61.55
840.433	61.53
840.738	61.56
841.044	61.58
841.349	61.61
841.654	61.6
841.959	61.6
842.265	61.61
842.57	61.61
842.875	61.66
843.18	61.68
843.485	61.65
843.79	61.67
844.095	61.58
844.4	61.55
844.705	61.71
845.01	61.66
845.315	61.64
845.619	61.61
845.924	61.52
846.229	61.51
846.533	61.52
846.838	61.58
847.142	61.53
847.447	61.47
847.751	61.48
848.056	61.42
848.36	61.39
848.664	61.36
848.969	61.36
849.273	61.33
849.577	61.4
849.881	61.37
850.185	61.4
850.489	61.37
850.794	61.21
851.097	61.16
851.401	61.16
851.705	61.28
852.009	61.41
852.313	61.38
852.617	61.19
852.92	61.22
853.224	61.19
853.528	61.11
853.831	61.02
854.135	61.07
854.438	61.12
854.742	61.13
855.045	60.96
855.349	61.14
855.652	61.06
855.955	60.89
856.259	60.98
856.562	61.05
856.865	61.07
857.168	61.08
857.471	61.26
857.774	61.46
858.077	61.55
858.38	61.62
858.683	61.61
858.986	61.58
859.289	61.56
859.592	61.54
859.894	61.5
860.197	61.48
860.5	61.51
860.802	61.53
861.105	61.59
861.407	61.56
861.71	61.45
862.012	61.47
862.315	61.49
862.617	61.56
862.919	61.49
863.222	61.43
863.524	61.74
863.826	61.7
864.128	61.62
864.43	61.7
864.732	61.75
865.034	61.75
865.336	61.71
865.638	61.72
865.94	61.7
866.242	61.73
866.544	61.72
866.846	61.77
867.147	61.67
867.449	61.64
867.751	61.41
868.052	61.48
868.354	61.72
868.655	61.52
868.957	61.31
869.258	61.37
869.56	61.41
869.861	61.43
870.162	61.41
870.463	61.39
870.765	61.21
871.066	61.28
871.367	61.34
871.668	61.3
871.969	61.29
872.27	61.34
872.571	61.34
872.872	61.43
873.173	61.54
873.473	61.55
873.774	61.58
874.075	61.63
874.376	61.56
874.676	61.5
874.977	61.42
875.277	61.45
875.578	61.56
875.878	61.37
876.179	61.41
876.479	61.46
876.78	61.36
877.08	61.38
877.38	61.46
877.68	61.5
877.981	61.39
878.281	61.46
878.581	61.5
