Data from UWBM55954_Reflection_00013.txt Node
Date: Sun May 02 13:52:08 EDT 2021
User: vgr7
Spectrometer: USB2G7710
Scans to average: 10
Trigger mode: 4
Integration Time (sec): 1.000000E-1
Electric dark correction enabled: true
Boxcar width: 20
XAxis mode: Wavelengths
Number of Pixels in Spectrum: 2048
>>>>>Begin Spectral Data<<<<<
177.721	108.95
178.105	128.8
178.488	103.58
178.871	126.92
179.254	91.42
179.636	69.3
180.019	60.25
180.402	57.47
180.785	42.68
181.168	41.65
181.55	37
181.933	40.47
182.316	32.91
182.698	34.93
183.081	28.01
183.463	20
183.846	16.3
184.228	16.92
184.611	15.66
184.993	16.55
185.376	17.8
185.758	18.71
186.14	23.51
186.522	23.61
186.904	26.24
187.287	25.25
187.669	24.75
188.051	20.6
188.433	21.94
188.815	18.66
189.197	18.25
189.579	18.53
189.961	18.91
190.342	18.22
190.724	18.92
191.106	20.92
191.488	19.16
191.869	17.4
192.251	16.18
192.633	16.28
193.014	15.89
193.396	12.11
193.777	13.73
194.159	12.87
194.54	12.43
194.922	11.45
195.303	10.15
195.684	9.35
196.065	8.88
196.447	10.74
196.828	8.89
197.209	8.67
197.59	5.18
197.971	5.53
198.352	5.68
198.733	8.68
199.114	11.74
199.495	12.62
199.876	12.23
200.257	11.55
200.638	10.15
201.018	11.19
201.399	12.72
201.78	10.88
202.16	10.11
202.541	9.55
202.922	8.53
203.302	9.7
203.683	11.44
204.063	11.66
204.444	11.13
204.824	11.44
205.204	9.6
205.585	10.12
205.965	10.11
206.345	10.54
206.725	10.14
207.106	10.12
207.486	10.79
207.866	11
208.246	10.44
208.626	11.05
209.006	11.61
209.386	10.24
209.766	9.6
210.145	8.03
210.525	9.35
210.905	11.34
211.285	9.51
211.664	9.25
212.044	7.77
212.424	8.39
212.803	7.82
213.183	8.58
213.562	9.33
213.942	7.04
214.321	6.17
214.701	3.56
215.08	3.19
215.459	2.87
215.838	2.72
216.218	3.06
216.597	1.73
216.976	2.06
217.355	3.08
217.734	4.76
218.113	4.8
218.492	4.05
218.871	3.04
219.25	3.73
219.629	3.27
220.008	3.53
220.387	3.58
220.766	5.01
221.144	3.76
221.523	4.3
221.902	4.5
222.28	4.25
222.659	4.52
223.037	3.91
223.416	4.25
223.794	4.63
224.173	4.79
224.551	4.79
224.929	5.68
225.308	5.95
225.686	6.09
226.064	6.08
226.442	5.67
226.821	6.53
227.199	6.58
227.577	7.05
227.955	7.1
228.333	7.32
228.711	7.1
229.089	6.58
229.467	6.86
229.845	6.54
230.222	7.13
230.6	7.57
230.978	7.5
231.356	7.83
231.733	7.83
232.111	7.95
232.488	7.73
232.866	7.42
233.243	7.26
233.621	7.17
233.998	7.29
234.376	7.28
234.753	6.99
235.13	6.87
235.508	6.87
235.885	6.68
236.262	6.55
236.639	6.51
237.016	6.45
237.393	6.39
237.77	6.32
238.147	6.25
238.524	6.31
238.901	6.23
239.278	6.27
239.655	6.27
240.032	6.22
240.409	6.2
240.785	6.28
241.162	6.31
241.539	6.23
241.915	6.3
242.292	6.29
242.668	6.25
243.045	6.19
243.421	6.16
243.798	6.15
244.174	6.2
244.551	6.18
244.927	6.18
245.303	6.2
245.679	6.18
246.056	6.1
246.432	6.08
246.808	6.03
247.184	6.06
247.56	6.03
247.936	5.98
248.312	5.96
248.688	5.92
249.064	5.89
249.44	5.89
249.815	5.88
250.191	5.83
250.567	5.86
250.943	5.84
251.318	5.81
251.694	5.82
252.069	5.79
252.445	5.74
252.82	5.69
253.196	5.66
253.571	5.62
253.947	5.61
254.322	5.59
254.697	5.53
255.073	5.51
255.448	5.51
255.823	5.45
256.198	5.4
256.573	5.36
256.948	5.36
257.323	5.3
257.698	5.25
258.073	5.22
258.448	5.21
258.823	5.19
259.198	5.16
259.573	5.12
259.948	5.14
260.322	5.13
260.697	5.1
261.072	5.09
261.446	5.08
261.821	5.08
262.195	5.08
262.57	5.05
262.944	5.04
263.319	5.06
263.693	5.06
264.067	5.06
264.442	5.05
264.816	5.02
265.19	5.01
265.564	5.02
265.938	4.99
266.313	4.99
266.687	4.99
267.061	4.96
267.435	4.98
267.809	4.98
268.183	4.99
268.556	4.99
268.93	4.99
269.304	4.99
269.678	5
270.051	5
270.425	4.96
270.799	4.95
271.172	4.96
271.546	4.95
271.919	4.95
272.293	4.93
272.666	4.94
273.04	4.95
273.413	4.99
273.787	5.01
274.16	5.02
274.533	5.02
274.906	5.02
275.279	5.02
275.653	5.02
276.026	5.04
276.399	5.04
276.772	5.07
277.145	5.05
277.518	5.06
277.891	5.06
278.263	5.07
278.636	5.06
279.009	5.06
279.382	5.05
279.755	5.08
280.127	5.09
280.5	5.1
280.872	5.12
281.245	5.12
281.617	5.14
281.99	5.15
282.362	5.15
282.735	5.13
283.107	5.15
283.479	5.14
283.852	5.15
284.224	5.16
284.596	5.16
284.968	5.15
285.34	5.16
285.713	5.18
286.085	5.2
286.457	5.22
286.829	5.24
287.201	5.25
287.572	5.27
287.944	5.28
288.316	5.29
288.688	5.27
289.06	5.28
289.431	5.29
289.803	5.31
290.175	5.33
290.546	5.35
290.918	5.38
291.289	5.39
291.661	5.41
292.032	5.41
292.403	5.44
292.775	5.47
293.146	5.49
293.517	5.51
293.889	5.55
294.26	5.58
294.631	5.62
295.002	5.65
295.373	5.68
295.744	5.71
296.115	5.73
296.486	5.77
296.857	5.8
297.228	5.82
297.599	5.86
297.97	5.89
298.34	5.91
298.711	5.95
299.082	5.98
299.452	6
299.823	6.03
300.194	6.06
300.564	6.09
300.935	6.12
301.305	6.14
301.676	6.15
302.046	6.17
302.416	6.19
302.787	6.22
303.157	6.24
303.527	6.28
303.897	6.32
304.267	6.34
304.637	6.38
305.008	6.42
305.378	6.46
305.748	6.49
306.117	6.5
306.487	6.55
306.857	6.6
307.227	6.64
307.597	6.67
307.967	6.68
308.336	6.73
308.706	6.75
309.076	6.76
309.445	6.79
309.815	6.8
310.184	6.82
310.554	6.84
310.923	6.87
311.293	6.89
311.662	6.89
312.031	6.92
312.401	6.96
312.77	7
313.139	7.03
313.508	7.07
313.877	7.09
314.246	7.13
314.616	7.16
314.985	7.19
315.353	7.21
315.722	7.23
316.091	7.26
316.46	7.29
316.829	7.32
317.198	7.36
317.567	7.39
317.935	7.44
318.304	7.45
318.672	7.48
319.041	7.52
319.41	7.56
319.778	7.6
320.147	7.61
320.515	7.64
320.883	7.68
321.252	7.71
321.62	7.74
321.988	7.77
322.357	7.78
322.725	7.81
323.093	7.82
323.461	7.83
323.829	7.86
324.197	7.88
324.565	7.88
324.933	7.91
325.301	7.92
325.669	7.93
326.037	7.94
326.405	7.97
326.772	7.99
327.14	8
327.508	7.99
327.875	8
328.243	8.01
328.61	8.02
328.978	8.03
329.346	8.04
329.713	8.06
330.08	8.08
330.448	8.08
330.815	8.09
331.182	8.09
331.55	8.11
331.917	8.11
332.284	8.11
332.651	8.14
333.018	8.15
333.385	8.18
333.752	8.19
334.119	8.19
334.486	8.2
334.853	8.21
335.22	8.23
335.587	8.25
335.954	8.26
336.32	8.27
336.687	8.26
337.054	8.26
337.42	8.28
337.787	8.31
338.153	8.33
338.52	8.33
338.886	8.34
339.253	8.35
339.619	8.38
339.986	8.39
340.352	8.39
340.718	8.4
341.084	8.4
341.451	8.41
341.817	8.42
342.183	8.43
342.549	8.44
342.915	8.44
343.281	8.44
343.647	8.45
344.013	8.44
344.379	8.45
344.745	8.46
345.11	8.47
345.476	8.49
345.842	8.5
346.208	8.52
346.573	8.52
346.939	8.54
347.304	8.55
347.67	8.54
348.035	8.55
348.401	8.55
348.766	8.56
349.132	8.58
349.497	8.59
349.862	8.6
350.228	8.6
350.593	8.6
350.958	8.6
351.323	8.6
351.688	8.61
352.053	8.61
352.418	8.6
352.783	8.58
353.148	8.57
353.513	8.58
353.878	8.57
354.243	8.57
354.608	8.55
354.972	8.55
355.337	8.55
355.702	8.55
356.066	8.54
356.431	8.53
356.795	8.52
357.16	8.5
357.524	8.5
357.889	8.5
358.253	8.49
358.618	8.48
358.982	8.48
359.346	8.47
359.71	8.44
360.075	8.44
360.439	8.42
360.803	8.4
361.167	8.39
361.531	8.38
361.895	8.36
362.259	8.35
362.623	8.34
362.987	8.33
363.351	8.31
363.714	8.29
364.078	8.26
364.442	8.24
364.806	8.22
365.169	8.19
365.533	8.17
365.896	8.15
366.26	8.14
366.623	8.12
366.987	8.1
367.35	8.08
367.714	8.06
368.077	8.04
368.44	8.01
368.803	7.98
369.167	7.96
369.53	7.92
369.893	7.88
370.256	7.85
370.619	7.82
370.982	7.79
371.345	7.76
371.708	7.73
372.071	7.7
372.434	7.67
372.797	7.64
373.159	7.6
373.522	7.57
373.885	7.54
374.247	7.51
374.61	7.48
374.973	7.44
375.335	7.41
375.698	7.37
376.06	7.34
376.423	7.3
376.785	7.27
377.147	7.23
377.51	7.2
377.872	7.16
378.234	7.13
378.596	7.1
378.958	7.06
379.321	7.03
379.683	7
380.045	6.97
380.407	6.95
380.769	6.91
381.13	6.88
381.492	6.84
381.854	6.81
382.216	6.77
382.578	6.74
382.939	6.72
383.301	6.69
383.663	6.66
384.024	6.63
384.386	6.61
384.747	6.59
385.109	6.57
385.47	6.54
385.832	6.5
386.193	6.47
386.554	6.44
386.916	6.42
387.277	6.39
387.638	6.37
387.999	6.35
388.36	6.32
388.721	6.3
389.082	6.27
389.443	6.25
389.804	6.23
390.165	6.22
390.526	6.19
390.887	6.17
391.248	6.15
391.609	6.13
391.969	6.11
392.33	6.09
392.691	6.06
393.051	6.04
393.412	6.02
393.772	6
394.133	5.97
394.493	5.95
394.854	5.92
395.214	5.9
395.574	5.88
395.935	5.85
396.295	5.83
396.655	5.81
397.015	5.78
397.376	5.76
397.736	5.73
398.096	5.71
398.456	5.68
398.816	5.66
399.176	5.63
399.535	5.61
399.895	5.58
400.255	5.56
400.615	5.55
400.975	5.53
401.334	5.51
401.694	5.49
402.054	5.47
402.413	5.45
402.773	5.42
403.132	5.41
403.492	5.39
403.851	5.38
404.211	5.37
404.57	5.35
404.929	5.33
405.288	5.32
405.648	5.31
406.007	5.3
406.366	5.29
406.725	5.27
407.084	5.26
407.443	5.26
407.802	5.24
408.161	5.23
408.52	5.23
408.879	5.22
409.238	5.22
409.596	5.21
409.955	5.2
410.314	5.19
410.673	5.19
411.031	5.19
411.39	5.18
411.748	5.18
412.107	5.18
412.465	5.18
412.824	5.2
413.182	5.22
413.54	5.24
413.899	5.27
414.257	5.3
414.615	5.34
414.974	5.37
415.332	5.41
415.69	5.45
416.048	5.48
416.406	5.52
416.764	5.55
417.122	5.58
417.48	5.62
417.838	5.65
418.195	5.67
418.553	5.69
418.911	5.7
419.269	5.71
419.626	5.7
419.984	5.68
420.342	5.66
420.699	5.64
421.057	5.6
421.414	5.58
421.772	5.56
422.129	5.54
422.486	5.53
422.844	5.53
423.201	5.52
423.558	5.51
423.915	5.5
424.273	5.5
424.63	5.49
424.987	5.49
425.344	5.48
425.701	5.48
426.058	5.47
426.415	5.47
426.772	5.47
427.128	5.46
427.485	5.44
427.842	5.43
428.199	5.4
428.555	5.38
428.912	5.35
429.269	5.32
429.625	5.29
429.982	5.25
430.338	5.21
430.695	5.18
431.051	5.14
431.407	5.11
431.764	5.09
432.12	5.07
432.476	5.05
432.832	5.04
433.189	5.04
433.545	5.04
433.901	5.06
434.257	5.09
434.613	5.12
434.969	5.15
435.325	5.18
435.681	5.23
436.036	5.26
436.392	5.28
436.748	5.31
437.104	5.32
437.459	5.35
437.815	5.37
438.171	5.4
438.526	5.43
438.882	5.47
439.237	5.52
439.593	5.56
439.948	5.6
440.304	5.65
440.659	5.68
441.014	5.7
441.369	5.73
441.725	5.76
442.08	5.77
442.435	5.79
442.79	5.8
443.145	5.8
443.5	5.8
443.855	5.8
444.21	5.79
444.565	5.79
444.92	5.78
445.275	5.77
445.629	5.76
445.984	5.74
446.339	5.73
446.693	5.71
447.048	5.69
447.403	5.67
447.757	5.63
448.112	5.61
448.466	5.58
448.82	5.54
449.175	5.51
449.529	5.49
449.883	5.47
450.238	5.43
450.592	5.43
450.946	5.41
451.3	5.41
451.654	5.42
452.008	5.41
452.362	5.42
452.716	5.41
453.07	5.41
453.424	5.4
453.778	5.39
454.132	5.37
454.486	5.36
454.839	5.34
455.193	5.31
455.547	5.29
455.9	5.26
456.254	5.24
456.607	5.2
456.961	5.17
457.314	5.14
457.668	5.13
458.021	5.13
458.375	5.12
458.728	5.13
459.081	5.13
459.434	5.14
459.787	5.16
460.141	5.17
460.494	5.18
460.847	5.2
461.2	5.2
461.553	5.21
461.906	5.22
462.259	5.23
462.611	5.24
462.964	5.25
463.317	5.26
463.67	5.28
464.022	5.29
464.375	5.3
464.728	5.31
465.08	5.32
465.433	5.33
465.785	5.33
466.138	5.32
466.49	5.3
466.843	5.29
467.195	5.27
467.547	5.25
467.899	5.23
468.252	5.2
468.604	5.18
468.956	5.16
469.308	5.14
469.66	5.15
470.012	5.15
470.364	5.16
470.716	5.17
471.068	5.2
471.42	5.23
471.772	5.26
472.123	5.28
472.475	5.3
472.827	5.31
473.178	5.33
473.53	5.35
473.882	5.36
474.233	5.39
474.585	5.44
474.936	5.52
475.288	5.63
475.639	5.78
475.99	5.95
476.342	6.14
476.693	6.34
477.044	6.55
477.395	6.76
477.746	6.98
478.097	7.19
478.448	7.41
478.8	7.63
479.15	7.82
479.501	8.01
479.852	8.17
480.203	8.33
480.554	8.49
480.905	8.63
481.255	8.76
481.606	8.9
481.957	9.02
482.307	9.14
482.658	9.25
483.009	9.35
483.359	9.46
483.709	9.56
484.06	9.65
484.41	9.75
484.761	9.84
485.111	9.93
485.461	10.01
485.811	10.08
486.162	10.15
486.512	10.21
486.862	10.26
487.212	10.29
487.562	10.31
487.912	10.33
488.262	10.34
488.612	10.33
488.961	10.31
489.311	10.26
489.661	10.18
490.011	10.07
490.36	9.94
490.71	9.79
491.06	9.63
491.409	9.46
491.759	9.28
492.108	9.1
492.458	8.91
492.807	8.7
493.157	8.51
493.506	8.32
493.855	8.14
494.204	7.98
494.554	7.82
494.903	7.68
495.252	7.55
495.601	7.42
495.95	7.3
496.299	7.19
496.648	7.09
496.997	6.99
497.346	6.9
497.695	6.82
498.043	6.74
498.392	6.66
498.741	6.59
499.09	6.53
499.438	6.47
499.787	6.42
500.135	6.38
500.484	6.35
500.832	6.33
501.181	6.32
501.529	6.34
501.878	6.38
502.226	6.41
502.574	6.46
502.923	6.51
503.271	6.57
503.619	6.63
503.967	6.69
504.315	6.74
504.663	6.8
505.011	6.86
505.359	6.92
505.707	6.98
506.055	7.05
506.403	7.12
506.751	7.19
507.098	7.27
507.446	7.35
507.794	7.43
508.141	7.53
508.489	7.62
508.837	7.73
509.184	7.83
509.531	7.93
509.879	8.03
510.226	8.15
510.574	8.27
510.921	8.39
511.268	8.52
511.616	8.65
511.963	8.79
512.31	8.93
512.657	9.07
513.004	9.2
513.351	9.32
513.698	9.44
514.045	9.55
514.392	9.65
514.739	9.74
515.086	9.82
515.432	9.91
515.779	9.99
516.126	10.07
516.473	10.18
516.819	10.29
517.166	10.41
517.512	10.54
517.859	10.68
518.205	10.84
518.552	11.01
518.898	11.2
519.245	11.42
519.591	11.7
519.937	12.03
520.283	12.41
520.629	12.83
520.976	13.27
521.322	13.73
521.668	14.2
522.014	14.68
522.36	15.16
522.706	15.63
523.052	16.09
523.398	16.51
523.743	16.91
524.089	17.27
524.435	17.59
524.781	17.92
525.126	18.23
525.472	18.54
525.817	18.85
526.163	19.14
526.509	19.43
526.854	19.72
527.199	20
527.545	20.29
527.89	20.59
528.235	20.89
528.581	21.16
528.926	21.43
529.271	21.69
529.616	21.93
529.961	22.17
530.306	22.39
530.651	22.59
530.996	22.77
531.341	22.93
531.686	23.09
532.031	23.24
532.376	23.4
532.721	23.59
533.065	23.79
533.41	24.01
533.755	24.19
534.099	24.35
534.444	24.49
534.788	24.61
535.133	24.72
535.477	24.8
535.822	24.87
536.166	24.92
536.51	24.92
536.855	24.88
537.199	24.82
537.543	24.76
537.887	24.73
538.231	24.73
538.576	24.73
538.92	24.72
539.264	24.71
539.608	24.68
539.951	24.63
540.295	24.58
540.639	24.53
540.983	24.46
541.327	24.37
541.671	24.29
542.014	24.22
542.358	24.16
542.701	24.17
543.045	24.21
543.389	24.28
543.732	24.36
544.075	24.46
544.419	24.57
544.762	24.69
545.105	24.81
545.449	24.96
545.792	25.1
546.135	25.24
546.478	25.36
546.821	25.44
547.165	25.48
547.508	25.48
547.851	25.44
548.194	25.38
548.536	25.28
548.879	25.16
549.222	25.03
549.565	24.9
549.908	24.76
550.25	24.64
550.593	24.57
550.936	24.55
551.278	24.57
551.621	24.62
551.963	24.68
552.306	24.76
552.648	24.86
552.991	24.98
553.333	25.11
553.675	25.28
554.017	25.47
554.36	25.67
554.702	25.89
555.044	26.15
555.386	26.44
555.728	26.75
556.07	27.02
556.412	27.31
556.754	27.53
557.096	27.72
557.438	27.91
557.78	28.11
558.121	28.3
558.463	28.49
558.805	28.68
559.147	28.89
559.488	29.07
559.83	29.27
560.171	29.45
560.513	29.64
560.854	29.82
561.196	30.01
561.537	30.18
561.878	30.35
562.22	30.52
562.561	30.69
562.902	30.85
563.243	31.01
563.584	31.18
563.925	31.35
564.266	31.51
564.607	31.67
564.948	31.84
565.289	31.99
565.63	32.15
565.971	32.31
566.312	32.47
566.653	32.62
566.993	32.76
567.334	32.91
567.675	33.04
568.015	33.18
568.356	33.32
568.696	33.45
569.037	33.58
569.377	33.71
569.718	33.83
570.058	33.96
570.398	34.08
570.739	34.19
571.079	34.3
571.419	34.4
571.759	34.5
572.099	34.6
572.439	34.7
572.779	34.79
573.119	34.88
573.459	34.97
573.799	35.06
574.139	35.16
574.479	35.26
574.819	35.35
575.158	35.43
575.498	35.53
575.838	35.62
576.177	35.7
576.517	35.79
576.856	35.88
577.196	35.97
577.535	36.06
577.875	36.14
578.214	36.22
578.553	36.3
578.893	36.39
579.232	36.47
579.571	36.55
579.91	36.63
580.25	36.71
580.589	36.79
580.928	36.88
581.267	36.97
581.606	37.07
581.945	37.15
582.283	37.24
582.622	37.34
582.961	37.42
583.3	37.51
583.639	37.61
583.977	37.69
584.316	37.77
584.654	37.85
584.993	37.95
585.332	38.05
585.67	38.13
586.008	38.21
586.347	38.3
586.685	38.39
587.024	38.48
587.362	38.57
587.7	38.66
588.038	38.76
588.376	38.85
588.715	38.96
589.053	39.05
589.391	39.15
589.729	39.25
590.067	39.35
590.404	39.44
590.742	39.54
591.08	39.62
591.418	39.7
591.756	39.79
592.093	39.88
592.431	39.95
592.769	40.02
593.106	40.09
593.444	40.16
593.781	40.23
594.119	40.3
594.456	40.36
594.793	40.43
595.131	40.5
595.468	40.57
595.805	40.66
596.143	40.73
596.48	40.8
596.817	40.88
597.154	40.97
597.491	41.05
597.828	41.14
598.165	41.23
598.502	41.31
598.839	41.38
599.176	41.45
599.512	41.53
599.849	41.61
600.186	41.66
600.523	41.72
600.859	41.79
601.196	41.84
601.532	41.9
601.869	41.96
602.205	42.02
602.542	42.07
602.878	42.13
603.215	42.19
603.551	42.24
603.887	42.3
604.223	42.35
604.56	42.41
604.896	42.46
605.232	42.51
605.568	42.56
605.904	42.61
606.24	42.66
606.576	42.71
606.912	42.75
607.248	42.8
607.583	42.84
607.919	42.88
608.255	42.93
608.591	42.96
608.926	43.01
609.262	43.04
609.597	43.08
609.933	43.11
610.268	43.16
610.604	43.2
610.939	43.22
611.275	43.25
611.61	43.28
611.945	43.3
612.281	43.34
612.616	43.37
612.951	43.4
613.286	43.43
613.621	43.47
613.956	43.52
614.291	43.55
614.626	43.59
614.961	43.64
615.296	43.68
615.631	43.72
615.966	43.75
616.3	43.8
616.635	43.85
616.97	43.88
617.304	43.92
617.639	43.95
617.973	43.99
618.308	44.02
618.642	44.06
618.977	44.11
619.311	44.15
619.646	44.2
619.98	44.26
620.314	44.3
620.648	44.36
620.983	44.39
621.317	44.43
621.651	44.47
621.985	44.51
622.319	44.57
622.653	44.6
622.987	44.63
623.321	44.66
623.655	44.7
623.988	44.73
624.322	44.76
624.656	44.81
624.99	44.84
625.323	44.87
625.657	44.92
625.99	44.94
626.324	44.97
626.657	45.01
626.991	45.05
627.324	45.08
627.658	45.12
627.991	45.16
628.324	45.19
628.657	45.23
628.991	45.27
629.324	45.3
629.657	45.34
629.99	45.37
630.323	45.4
630.656	45.44
630.989	45.46
631.322	45.5
631.655	45.54
631.987	45.58
632.32	45.62
632.653	45.65
632.986	45.69
633.318	45.71
633.651	45.74
633.984	45.77
634.316	45.81
634.649	45.85
634.981	45.88
635.313	45.93
635.646	45.97
635.978	45.99
636.31	46.03
636.643	46.08
636.975	46.13
637.307	46.17
637.639	46.21
637.971	46.24
638.303	46.27
638.635	46.31
638.967	46.35
639.299	46.4
639.631	46.44
639.963	46.49
640.295	46.53
640.626	46.57
640.958	46.6
641.29	46.64
641.621	46.69
641.953	46.72
642.285	46.77
642.616	46.81
642.948	46.86
643.279	46.91
643.61	46.96
643.942	47
644.273	47.05
644.604	47.09
644.936	47.13
645.267	47.16
645.598	47.21
645.929	47.26
646.26	47.3
646.591	47.35
646.922	47.38
647.253	47.43
647.584	47.47
647.915	47.5
648.245	47.55
648.576	47.61
648.907	47.65
649.238	47.68
649.568	47.74
649.899	47.78
650.229	47.83
650.56	47.88
650.89	47.92
651.221	47.97
651.551	48.01
651.882	48.06
652.212	48.11
652.542	48.15
652.872	48.19
653.203	48.25
653.533	48.29
653.863	48.33
654.193	48.37
654.523	48.42
654.853	48.46
655.183	48.49
655.513	48.54
655.843	48.58
656.172	48.62
656.502	48.65
656.832	48.69
657.162	48.72
657.491	48.76
657.821	48.79
658.15	48.83
658.48	48.87
658.809	48.91
659.139	48.95
659.468	48.99
659.798	49.04
660.127	49.07
660.456	49.12
660.785	49.15
661.115	49.19
661.444	49.24
661.773	49.28
662.102	49.31
662.431	49.34
662.76	49.39
663.089	49.43
663.418	49.49
663.747	49.52
664.076	49.54
664.404	49.59
664.733	49.63
665.062	49.69
665.39	49.74
665.719	49.78
666.048	49.83
666.376	49.88
666.705	49.92
667.033	49.96
667.362	50
667.69	50.05
668.018	50.11
668.347	50.16
668.675	50.22
669.003	50.27
669.331	50.33
669.659	50.38
669.987	50.44
670.315	50.48
670.643	50.53
670.971	50.59
671.299	50.63
671.627	50.68
671.955	50.73
672.283	50.79
672.61	50.84
672.938	50.9
673.266	50.94
673.593	50.98
673.921	51.04
674.249	51.09
674.576	51.14
674.904	51.19
675.231	51.22
675.558	51.27
675.886	51.32
676.213	51.35
676.54	51.38
676.867	51.4
677.195	51.44
677.522	51.48
677.849	51.51
678.176	51.55
678.503	51.57
678.83	51.61
679.157	51.63
679.484	51.68
679.81	51.72
680.137	51.74
680.464	51.78
680.791	51.82
681.117	51.85
681.444	51.88
681.771	51.9
682.097	51.94
682.424	51.97
682.75	51.99
683.077	52.02
683.403	52.04
683.729	52.08
684.056	52.12
684.382	52.12
684.708	52.16
685.034	52.19
685.36	52.21
685.686	52.25
686.012	52.27
686.339	52.3
686.664	52.34
686.99	52.37
687.316	52.4
687.642	52.44
687.968	52.46
688.294	52.49
688.619	52.53
688.945	52.58
689.271	52.62
689.596	52.66
689.922	52.71
690.247	52.76
690.573	52.79
690.898	52.84
691.224	52.89
691.549	52.93
691.874	52.95
692.2	52.96
692.525	53
692.85	53.03
693.175	53.06
693.5	53.1
693.825	53.15
694.15	53.18
694.475	53.21
694.8	53.22
695.125	53.24
695.45	53.27
695.775	53.29
696.099	53.32
696.424	53.36
696.749	53.37
697.073	53.39
697.398	53.41
697.723	53.45
698.047	53.48
698.372	53.52
698.696	53.54
699.02	53.54
699.345	53.56
699.669	53.58
699.993	53.61
700.318	53.62
700.642	53.64
700.966	53.66
701.29	53.69
701.614	53.7
701.938	53.71
702.262	53.73
702.586	53.74
702.91	53.75
703.234	53.77
703.557	53.79
703.881	53.82
704.205	53.84
704.529	53.86
704.852	53.87
705.176	53.91
705.499	53.97
705.823	54.01
706.146	54.04
706.47	54.05
706.793	54.08
707.117	54.06
707.44	54.09
707.763	54.11
708.086	54.18
708.409	54.21
708.733	54.25
709.056	54.28
709.379	54.3
709.702	54.32
710.025	54.34
710.348	54.36
710.671	54.39
710.993	54.41
711.316	54.41
711.639	54.43
711.962	54.47
712.284	54.5
712.607	54.52
712.93	54.55
713.252	54.57
713.575	54.61
713.897	54.64
714.22	54.65
714.542	54.66
714.864	54.68
715.187	54.68
715.509	54.7
715.831	54.72
716.153	54.76
716.475	54.77
716.798	54.77
717.12	54.77
717.442	54.82
717.764	54.84
718.085	54.87
718.407	54.9
718.729	54.92
719.051	54.94
719.373	54.96
719.695	55.02
720.016	55.05
720.338	55.12
720.659	55.15
720.981	55.21
721.302	55.21
721.624	55.25
721.945	55.25
722.267	55.27
722.588	55.32
722.909	55.3
723.231	55.33
723.552	55.36
723.873	55.4
724.194	55.45
724.515	55.5
724.836	55.5
725.157	55.49
725.478	55.53
725.799	55.54
726.12	55.55
726.441	55.56
726.762	55.58
727.083	55.55
727.403	55.58
727.724	55.62
728.045	55.68
728.365	55.73
728.686	55.77
729.006	55.8
729.327	55.82
729.647	55.82
729.967	55.86
730.288	55.91
730.608	55.9
730.928	55.92
731.249	55.94
731.569	55.94
731.889	55.96
732.209	55.96
732.529	55.97
732.849	55.98
733.169	55.99
733.489	56
733.809	56.01
734.129	56.01
734.448	56.04
734.768	56.04
735.088	56.05
735.408	56.07
735.727	56.07
736.047	56.11
736.366	56.12
736.686	56.14
737.005	56.15
737.325	56.13
737.644	56.13
737.963	56.14
738.283	56.15
738.602	56.16
738.921	56.19
739.24	56.21
739.56	56.24
739.879	56.24
740.198	56.24
740.517	56.24
740.836	56.24
741.155	56.23
741.473	56.22
741.792	56.21
742.111	56.21
742.43	56.19
742.748	56.26
743.067	56.28
743.386	56.28
743.704	56.29
744.023	56.31
744.341	56.29
744.66	56.31
744.978	56.31
745.297	56.31
745.615	56.31
745.933	56.29
746.252	56.28
746.57	56.28
746.888	56.29
747.206	56.29
747.524	56.28
747.842	56.3
748.16	56.33
748.478	56.36
748.796	56.36
749.114	56.41
749.432	56.4
749.749	56.41
750.067	56.43
750.385	56.42
750.703	56.43
751.02	56.45
751.338	56.46
751.655	56.46
751.973	56.48
752.29	56.49
752.608	56.46
752.925	56.5
753.242	56.58
753.56	56.59
753.877	56.64
754.194	56.69
754.511	56.71
754.828	56.73
755.145	56.74
755.462	56.8
755.779	56.8
756.096	56.8
756.413	56.82
756.73	56.88
757.047	56.84
757.364	56.9
757.68	56.96
757.997	57.02
758.314	57.06
758.63	57.11
758.947	57.16
759.264	57.22
759.58	57.26
759.896	57.28
760.213	57.3
760.529	57.35
760.846	57.36
761.162	57.38
761.478	57.38
761.794	57.41
762.11	57.41
762.426	57.45
762.743	57.48
763.059	57.47
763.375	57.52
763.69	57.5
764.006	57.53
764.322	57.55
764.638	57.6
764.954	57.6
765.27	57.58
765.585	57.62
765.901	57.62
766.216	57.61
766.532	57.62
766.848	57.63
767.163	57.63
767.478	57.66
767.794	57.7
768.109	57.7
768.424	57.7
768.74	57.7
769.055	57.71
769.37	57.74
769.685	57.74
770	57.78
770.315	57.75
770.63	57.73
770.945	57.73
771.26	57.75
771.575	57.72
771.89	57.73
772.205	57.72
772.52	57.7
772.834	57.72
773.149	57.74
773.464	57.73
773.778	57.76
774.093	57.74
774.407	57.78
774.722	57.76
775.036	57.8
775.351	57.82
775.665	57.82
775.979	57.85
776.293	57.84
776.608	57.89
776.922	57.92
777.236	57.96
777.55	57.94
777.864	57.95
778.178	57.98
778.492	58.05
778.806	58.04
779.12	58.06
779.434	58.06
779.747	58.03
780.061	58.02
780.375	57.98
780.689	57.93
781.002	57.94
781.316	57.92
781.629	57.92
781.943	57.97
782.256	57.96
782.57	57.97
782.883	58.02
783.196	58.06
783.51	58.08
783.823	58.07
784.136	58.04
784.449	58.11
784.762	58.15
785.075	58.15
785.388	58.18
785.701	58.17
786.014	58.19
786.327	58.18
786.64	58.16
786.953	58.17
787.266	58.17
787.578	58.22
787.891	58.19
788.204	58.14
788.516	58.16
788.829	58.14
789.141	58.13
789.454	58.1
789.766	58.08
790.079	58.07
790.391	58.09
790.703	58.11
791.016	58.16
791.328	58.13
791.64	58.17
791.952	58.22
792.264	58.23
792.576	58.23
792.888	58.27
793.2	58.33
793.512	58.36
793.824	58.41
794.136	58.47
794.448	58.51
794.76	58.49
795.071	58.49
795.383	58.5
795.695	58.48
796.006	58.53
796.318	58.51
796.629	58.56
796.941	58.57
797.252	58.53
797.564	58.51
797.875	58.45
798.186	58.46
798.497	58.39
798.809	58.38
799.12	58.39
799.431	58.37
799.742	58.43
800.053	58.44
800.364	58.41
800.675	58.42
800.986	58.48
801.297	58.44
801.608	58.51
801.918	58.55
802.229	58.59
802.54	58.55
802.851	58.51
803.161	58.53
803.472	58.54
803.782	58.53
804.093	58.56
804.403	58.54
804.714	58.49
805.024	58.52
805.334	58.51
805.645	58.49
805.955	58.45
806.265	58.5
806.575	58.5
806.885	58.52
807.195	58.53
807.505	58.6
807.815	58.64
808.125	58.7
808.435	58.74
808.745	58.72
809.055	58.78
809.365	58.78
809.674	58.76
809.984	58.83
810.294	58.87
810.603	58.93
810.913	58.96
811.222	59.06
811.532	59.08
811.841	59.11
812.151	59.21
812.46	59.15
812.769	59.11
813.079	59.12
813.388	59.1
813.697	59.09
814.006	59.15
814.315	59.11
814.624	59.21
814.933	59.24
815.242	59.3
815.551	59.34
815.86	59.39
816.169	59.41
816.478	59.4
816.786	59.42
817.095	59.43
817.404	59.45
817.712	59.49
818.021	59.56
818.33	59.57
818.638	59.57
818.947	59.53
819.255	59.5
819.563	59.46
819.872	59.48
820.18	59.5
820.488	59.53
820.796	59.52
821.105	59.51
821.413	59.53
821.721	59.55
822.029	59.55
822.337	59.61
822.645	59.61
822.953	59.62
823.26	59.63
823.568	59.63
823.876	59.61
824.184	59.6
824.491	59.6
824.799	59.58
825.107	59.58
825.414	59.61
825.722	59.61
826.029	59.65
826.337	59.67
826.644	59.67
826.951	59.69
827.259	59.67
827.566	59.67
827.873	59.67
828.18	59.69
828.488	59.67
828.795	59.69
829.102	59.69
829.409	59.67
829.716	59.67
830.023	59.69
830.329	59.68
830.636	59.67
830.943	59.7
831.25	59.72
831.557	59.74
831.863	59.82
832.17	59.84
832.476	59.79
832.783	59.77
833.089	59.73
833.396	59.73
833.702	59.75
834.009	59.73
834.315	59.73
834.621	59.7
834.928	59.68
835.234	59.69
835.54	59.67
835.846	59.65
836.152	59.63
836.458	59.66
836.764	59.7
837.07	59.73
837.376	59.76
837.682	59.79
837.988	59.79
838.293	59.84
838.599	59.81
838.905	59.73
839.211	59.68
839.516	59.66
839.822	59.67
840.127	59.7
840.433	59.71
840.738	59.7
841.044	59.7
841.349	59.65
841.654	59.63
841.959	59.65
842.265	59.71
842.57	59.67
842.875	59.61
843.18	59.63
843.485	59.58
843.79	59.62
844.095	59.7
844.4	59.56
844.705	59.62
845.01	59.73
845.315	59.76
845.619	59.75
845.924	59.74
846.229	59.76
846.533	59.82
846.838	59.79
847.142	59.93
847.447	59.82
847.751	59.78
848.056	59.83
848.36	59.87
848.664	59.75
848.969	59.86
849.273	59.8
849.577	59.7
849.881	59.72
850.185	59.71
850.489	59.66
850.794	59.68
851.097	59.73
851.401	59.85
851.705	60
852.009	59.94
852.313	59.87
852.617	60
852.92	60.05
853.224	60.16
853.528	60.21
853.831	60.3
854.135	60.35
854.438	60.33
854.742	60.34
855.045	60.29
855.349	60.47
855.652	60.19
855.955	60.07
856.259	59.87
856.562	59.96
856.865	60
857.168	60.07
857.471	59.99
857.774	60.04
858.077	60.03
858.38	60.19
858.683	60.21
858.986	60.1
859.289	60.09
859.592	59.99
859.894	60.01
860.197	60.17
860.5	60.18
860.802	60.2
861.105	60.41
861.407	60.31
861.71	60.25
862.012	60.24
862.315	60.26
862.617	60.21
862.919	60.22
863.222	60.21
863.524	60.29
863.826	60.3
864.128	60.29
864.43	60.33
864.732	60.48
865.034	60.26
865.336	60.2
865.638	60.04
865.94	60.09
866.242	60.09
866.544	60.26
866.846	60.29
867.147	60.17
867.449	60.24
867.751	60.1
868.052	60.26
868.354	60.35
868.655	60.52
868.957	60.38
869.258	60.29
869.56	60.17
869.861	60.13
870.162	60.12
870.463	60.22
870.765	60.06
871.066	60.13
871.367	60.19
871.668	60.05
871.969	59.97
872.27	59.98
872.571	59.95
872.872	59.9
873.173	59.89
873.473	59.9
873.774	59.95
874.075	60.11
874.376	60.2
874.676	60.18
874.977	60.22
875.277	60.18
875.578	60.13
875.878	59.9
876.179	59.86
876.479	59.8
876.78	59.89
877.08	59.66
877.38	59.69
877.68	59.71
877.981	59.8
878.281	59.62
878.581	59.43
