Data from UWBM50074_Reflection_00004.txt Node
Date: Sun May 02 12:34:20 EDT 2021
User: vgr7
Spectrometer: USB2G7710
Scans to average: 10
Trigger mode: 4
Integration Time (sec): 1.000000E-1
Electric dark correction enabled: true
Boxcar width: 10
XAxis mode: Wavelengths
Number of Pixels in Spectrum: 2048
>>>>>Begin Spectral Data<<<<<
177.721	358.99
178.105	350
178.488	-621.31
178.871	228.3
179.254	620
179.636	195.38
180.019	60.31
180.402	136.84
180.785	87.42
181.168	169.78
181.55	117.32
181.933	-63.08
182.316	-52
182.698	-147.19
183.081	-71.2
183.463	287.34
183.846	96.31
184.228	42.94
184.611	61.19
184.993	70.7
185.376	53.64
185.758	40.31
186.14	34.96
186.522	34.21
186.904	16.53
187.287	19.28
187.669	17.62
188.051	9.01
188.433	14.42
188.815	11.43
189.197	8.97
189.579	8.51
189.961	11.34
190.342	11.4
190.724	13.57
191.106	14.79
191.488	15.39
191.869	12.25
192.251	17.26
192.633	12.33
193.014	12.63
193.396	15.43
193.777	17.7
194.159	17.56
194.54	15.92
194.922	20.38
195.303	22.06
195.684	24.19
196.065	21.59
196.447	18.26
196.828	20.1
197.209	18.82
197.59	17.99
197.971	16.27
198.352	16.84
198.733	18.47
199.114	18.55
199.495	18.99
199.876	18.38
200.257	16.15
200.638	20.91
201.018	20.44
201.399	18.06
201.78	16.79
202.16	13.54
202.541	17.28
202.922	16.3
203.302	13.54
203.683	11.51
204.063	12.55
204.444	12.96
204.824	15.09
205.204	17.53
205.585	18.54
205.965	18.76
206.345	20.45
206.725	16.64
207.106	14.77
207.486	11.84
207.866	11.38
208.246	12.07
208.626	13.46
209.006	12.82
209.386	12.33
209.766	12.35
210.145	12.22
210.525	7.74
210.905	8.12
211.285	9.9
211.664	9.89
212.044	11.46
212.424	14.23
212.803	11.31
213.183	11.71
213.562	11.33
213.942	11.22
214.321	8.34
214.701	7.16
215.08	9.52
215.459	8.32
215.838	9.48
216.218	7.42
216.597	3.74
216.976	3.84
217.355	2.87
217.734	4.64
218.113	6.05
218.492	8.93
218.871	10.14
219.25	11.61
219.629	11.42
220.008	11.55
220.387	10.53
220.766	7.59
221.144	6.83
221.523	8.64
221.902	8.26
222.28	9.24
222.659	12.33
223.037	11.35
223.416	12.82
223.794	13.18
224.173	15.01
224.551	15.46
224.929	13.14
225.308	14.03
225.686	13.06
226.064	12.25
226.442	11.47
226.821	10.52
227.199	8.7
227.577	8.12
227.955	7.15
228.333	6.83
228.711	7.41
229.089	8.06
229.467	7.52
229.845	8.44
230.222	8.35
230.6	8.27
230.978	8.61
231.356	8.09
231.733	7.89
232.111	7.88
232.488	7.52
232.866	7.03
233.243	6.65
233.621	6.89
233.998	6.68
234.376	6.43
234.753	6.82
235.13	6.8
235.508	7.32
235.885	7.61
236.262	7.79
236.639	7.81
237.016	7.63
237.393	7.38
237.77	6.97
238.147	6.7
238.524	6.49
238.901	6.39
239.278	6.31
239.655	6.25
240.032	6
240.409	6.06
240.785	6.05
241.162	6.01
241.539	5.91
241.915	5.89
242.292	5.87
242.668	5.67
243.045	5.7
243.421	5.52
243.798	5.48
244.174	5.29
244.551	5.17
244.927	5.05
245.303	4.96
245.679	4.97
246.056	4.92
246.432	4.88
246.808	4.81
247.184	4.79
247.56	4.74
247.936	4.77
248.312	4.78
248.688	4.82
249.064	4.84
249.44	4.79
249.815	4.79
250.191	4.72
250.567	4.7
250.943	4.67
251.318	4.66
251.694	4.54
252.069	4.5
252.445	4.55
252.82	4.51
253.196	4.55
253.571	4.47
253.947	4.52
254.322	4.52
254.697	4.56
255.073	4.56
255.448	4.52
255.823	4.45
256.198	4.31
256.573	4.22
256.948	4.13
257.323	4.16
257.698	4.13
258.073	4.17
258.448	4.18
258.823	4.21
259.198	4.21
259.573	4.23
259.948	4.28
260.322	4.24
260.697	4.25
261.072	4.25
261.446	4.23
261.821	4.25
262.195	4.22
262.57	4.18
262.944	4.15
263.319	4.15
263.693	4.19
264.067	4.2
264.442	4.21
264.816	4.24
265.19	4.21
265.564	4.21
265.938	4.2
266.313	4.2
266.687	4.14
267.061	4.19
267.435	4.18
267.809	4.14
268.183	4.17
268.556	4.17
268.93	4.14
269.304	4.14
269.678	4.09
270.051	4.06
270.425	4.1
270.799	4.13
271.172	4.13
271.546	4.11
271.919	4.15
272.293	4.13
272.666	4.13
273.04	4.14
273.413	4.11
273.787	4.08
274.16	4.09
274.533	4.06
274.906	4.03
275.279	4.07
275.653	4.07
276.026	4.02
276.399	4
276.772	4.04
277.145	4.04
277.518	4.03
277.891	4.07
278.263	4.06
278.636	4.07
279.009	4.06
279.382	4.06
279.755	4.02
280.127	4.06
280.5	4.04
280.872	4.01
281.245	4.05
281.617	4.08
281.99	4.08
282.362	4.08
282.735	4.06
283.107	4.02
283.479	4.04
283.852	4.05
284.224	4.06
284.596	4.01
284.968	4.01
285.34	4.02
285.713	4.03
286.085	4.01
286.457	4.02
286.829	4.03
287.201	4.01
287.572	4.03
287.944	4.03
288.316	4.04
288.688	4.06
289.06	4.07
289.431	4.06
289.803	4.06
290.175	4.08
290.546	4.08
290.918	4.09
291.289	4.09
291.661	4.13
292.032	4.12
292.403	4.17
292.775	4.17
293.146	4.18
293.517	4.17
293.889	4.18
294.26	4.14
294.631	4.14
295.002	4.16
295.373	4.18
295.744	4.17
296.115	4.18
296.486	4.18
296.857	4.16
297.228	4.16
297.599	4.16
297.97	4.16
298.34	4.17
298.711	4.17
299.082	4.15
299.452	4.12
299.823	4.14
300.194	4.12
300.564	4.12
300.935	4.11
301.305	4.1
301.676	4.07
302.046	4.06
302.416	4.06
302.787	4.06
303.157	4.07
303.527	4.07
303.897	4.05
304.267	4.05
304.637	4.05
305.008	4.07
305.378	4.07
305.748	4.07
306.117	4.07
306.487	4.06
306.857	4.1
307.227	4.09
307.597	4.08
307.967	4.06
308.336	4.07
308.706	4.08
309.076	4.06
309.445	4.08
309.815	4.09
310.184	4.08
310.554	4.06
310.923	4.02
311.293	4.01
311.662	3.99
312.031	3.98
312.401	3.98
312.77	3.95
313.139	3.98
313.508	3.97
313.877	3.99
314.246	4
314.616	3.98
314.985	3.97
315.353	3.94
315.722	3.94
316.091	3.93
316.46	3.93
316.829	3.96
317.198	3.95
317.567	3.93
317.935	3.94
318.304	3.93
318.672	3.93
319.041	3.95
319.41	3.96
319.778	3.99
320.147	4.01
320.515	3.99
320.883	3.96
321.252	3.97
321.62	3.91
321.988	3.91
322.357	3.91
322.725	3.92
323.093	3.96
323.461	3.98
323.829	3.99
324.197	3.98
324.565	3.98
324.933	3.97
325.301	4
325.669	4.01
326.037	4.05
326.405	4.04
326.772	4
327.14	4.01
327.508	4.01
327.875	4
328.243	4.02
328.61	4.02
328.978	4.03
329.346	4.05
329.713	4.03
330.08	4.04
330.448	4.04
330.815	4.03
331.182	4
331.55	3.99
331.917	4.03
332.284	4.01
332.651	4.01
333.018	4.01
333.385	4.01
333.752	4
334.119	4
334.486	4.03
334.853	4.03
335.22	4.01
335.587	4
335.954	4
336.32	3.98
336.687	3.96
337.054	3.94
337.42	3.97
337.787	3.96
338.153	3.96
338.52	3.99
338.886	4.02
339.253	4.02
339.619	3.99
339.986	4
340.352	4.01
340.718	4.02
341.084	4
341.451	4.01
341.817	4.02
342.183	4.04
342.549	4.02
342.915	4.02
343.281	4.03
343.647	4.05
344.013	4.06
344.379	4.07
344.745	4.08
345.11	4.07
345.476	4.07
345.842	4.1
346.208	4.08
346.573	4.07
346.939	4.09
347.304	4.09
347.67	4.09
348.035	4.1
348.401	4.08
348.766	4.1
349.132	4.1
349.497	4.11
349.862	4.1
350.228	4.11
350.593	4.13
350.958	4.11
351.323	4.11
351.688	4.12
352.053	4.1
352.418	4.12
352.783	4.1
353.148	4.11
353.513	4.09
353.878	4.1
354.243	4.08
354.608	4.06
354.972	4.07
355.337	4.08
355.702	4.06
356.066	4.07
356.431	4.05
356.795	4.04
357.16	4.03
357.524	4.02
357.889	4.01
358.253	4.01
358.618	4.04
358.982	4.04
359.346	4.04
359.71	4.05
360.075	4.04
360.439	4.05
360.803	4.04
361.167	4.05
361.531	4.04
361.895	4.05
362.259	4.07
362.623	4.07
362.987	4.07
363.351	4.08
363.714	4.08
364.078	4.07
364.442	4.08
364.806	4.08
365.169	4.09
365.533	4.09
365.896	4.1
366.26	4.09
366.623	4.08
366.987	4.09
367.35	4.09
367.714	4.1
368.077	4.11
368.44	4.12
368.803	4.12
369.167	4.13
369.53	4.13
369.893	4.13
370.256	4.13
370.619	4.12
370.982	4.12
371.345	4.1
371.708	4.11
372.071	4.11
372.434	4.12
372.797	4.12
373.159	4.13
373.522	4.14
373.885	4.15
374.247	4.16
374.61	4.15
374.973	4.16
375.335	4.16
375.698	4.16
376.06	4.16
376.423	4.16
376.785	4.14
377.147	4.15
377.51	4.16
377.872	4.16
378.234	4.16
378.596	4.17
378.958	4.19
379.321	4.21
379.683	4.21
380.045	4.2
380.407	4.21
380.769	4.21
381.13	4.21
381.492	4.2
381.854	4.19
382.216	4.2
382.578	4.2
382.939	4.21
383.301	4.2
383.663	4.21
384.024	4.21
384.386	4.21
384.747	4.22
385.109	4.23
385.47	4.22
385.832	4.22
386.193	4.22
386.554	4.21
386.916	4.2
387.277	4.2
387.638	4.2
387.999	4.2
388.36	4.2
388.721	4.21
389.082	4.21
389.443	4.21
389.804	4.21
390.165	4.2
390.526	4.2
390.887	4.2
391.248	4.21
391.609	4.22
391.969	4.22
392.33	4.21
392.691	4.21
393.051	4.21
393.412	4.21
393.772	4.22
394.133	4.23
394.493	4.23
394.854	4.23
395.214	4.23
395.574	4.23
395.935	4.24
396.295	4.23
396.655	4.23
397.015	4.23
397.376	4.23
397.736	4.24
398.096	4.24
398.456	4.24
398.816	4.23
399.176	4.23
399.535	4.24
399.895	4.24
400.255	4.24
400.615	4.24
400.975	4.25
401.334	4.25
401.694	4.25
402.054	4.26
402.413	4.27
402.773	4.27
403.132	4.28
403.492	4.27
403.851	4.28
404.211	4.28
404.57	4.29
404.929	4.29
405.288	4.29
405.648	4.3
406.007	4.3
406.366	4.3
406.725	4.3
407.084	4.3
407.443	4.3
407.802	4.3
408.161	4.31
408.52	4.3
408.879	4.31
409.238	4.31
409.596	4.31
409.955	4.3
410.314	4.3
410.673	4.29
411.031	4.3
411.39	4.3
411.748	4.31
412.107	4.31
412.465	4.31
412.824	4.32
413.182	4.32
413.54	4.32
413.899	4.33
414.257	4.33
414.615	4.34
414.974	4.34
415.332	4.35
415.69	4.36
416.048	4.39
416.406	4.43
416.764	4.47
417.122	4.52
417.48	4.58
417.838	4.63
418.195	4.71
418.553	4.76
418.911	4.82
419.269	4.89
419.626	4.94
419.984	5.01
420.342	5.06
420.699	5.11
421.057	5.18
421.414	5.23
421.772	5.28
422.129	5.32
422.486	5.36
422.844	5.38
423.201	5.37
423.558	5.36
423.915	5.31
424.273	5.27
424.63	5.2
424.987	5.13
425.344	5.07
425.701	5
426.058	4.95
426.415	4.89
426.772	4.82
427.128	4.77
427.485	4.69
427.842	4.64
428.199	4.58
428.555	4.51
428.912	4.45
429.269	4.4
429.625	4.35
429.982	4.32
430.338	4.29
430.695	4.29
431.051	4.3
431.407	4.32
431.764	4.34
432.12	4.37
432.476	4.41
432.832	4.43
433.189	4.45
433.545	4.46
433.901	4.46
434.257	4.46
434.613	4.47
434.969	4.48
435.325	4.51
435.681	4.53
436.036	4.57
436.392	4.6
436.748	4.65
437.104	4.7
437.459	4.75
437.815	4.79
438.171	4.84
438.526	4.87
438.882	4.9
439.237	4.95
439.593	4.97
439.948	4.99
440.304	5.01
440.659	5.03
441.014	5.07
441.369	5.11
441.725	5.15
442.08	5.21
442.435	5.26
442.79	5.33
443.145	5.39
443.5	5.42
443.855	5.47
444.21	5.48
444.565	5.48
444.92	5.49
445.275	5.49
445.629	5.49
445.984	5.49
446.339	5.47
446.693	5.44
447.048	5.42
447.403	5.4
447.757	5.39
448.112	5.37
448.466	5.31
448.82	5.27
449.175	5.21
449.529	5.14
449.883	5.06
450.238	4.97
450.592	4.89
450.946	4.82
451.3	4.73
451.654	4.67
452.008	4.62
452.362	4.55
452.716	4.5
453.07	4.45
453.424	4.41
453.778	4.4
454.132	4.39
454.486	4.39
454.839	4.41
455.193	4.44
455.547	4.49
455.9	4.56
456.254	4.62
456.607	4.68
456.961	4.75
457.314	4.83
457.668	4.9
458.021	4.95
458.375	5
458.728	5.01
459.081	5.04
459.434	5.04
459.787	5.05
460.141	5.03
460.494	5.01
460.847	4.98
461.2	4.97
461.553	4.95
461.906	4.94
462.259	4.92
462.611	4.89
462.964	4.85
463.317	4.8
463.67	4.76
464.022	4.72
464.375	4.67
464.728	4.6
465.08	4.54
465.433	4.49
465.785	4.45
466.138	4.44
466.49	4.42
466.843	4.42
467.195	4.43
467.547	4.46
467.899	4.5
468.252	4.54
468.604	4.55
468.956	4.57
469.308	4.59
469.66	4.59
470.012	4.59
470.364	4.6
470.716	4.6
471.068	4.6
471.42	4.6
471.772	4.6
472.123	4.6
472.475	4.61
472.827	4.61
473.178	4.62
473.53	4.62
473.882	4.62
474.233	4.63
474.585	4.63
474.936	4.64
475.288	4.64
475.639	4.64
475.99	4.65
476.342	4.66
476.693	4.66
477.044	4.68
477.395	4.71
477.746	4.75
478.097	4.83
478.448	4.95
478.8	5.15
479.15	5.39
479.501	5.67
479.852	5.97
480.203	6.3
480.554	6.64
480.905	6.99
481.255	7.34
481.606	7.69
481.957	8.06
482.307	8.41
482.658	8.75
483.009	9.06
483.359	9.35
483.709	9.62
484.06	9.89
484.41	10.16
484.761	10.39
485.111	10.61
485.461	10.78
485.811	10.89
486.162	10.93
486.512	10.91
486.862	10.85
487.212	10.76
487.562	10.63
487.912	10.47
488.262	10.29
488.612	10.11
488.961	9.92
489.311	9.7
489.661	9.48
490.011	9.26
490.36	9.04
490.71	8.81
491.06	8.57
491.409	8.33
491.759	8.09
492.108	7.86
492.458	7.63
492.807	7.42
493.157	7.22
493.506	7.02
493.855	6.84
494.204	6.66
494.554	6.48
494.903	6.32
495.252	6.16
495.601	5.99
495.95	5.83
496.299	5.66
496.648	5.52
496.997	5.37
497.346	5.24
497.695	5.13
498.043	5.05
498.392	4.99
498.741	4.95
499.09	4.91
499.438	4.88
499.787	4.86
500.135	4.83
500.484	4.81
500.832	4.79
501.181	4.78
501.529	4.76
501.878	4.73
502.226	4.71
502.574	4.7
502.923	4.69
503.271	4.7
503.619	4.71
503.967	4.71
504.315	4.73
504.663	4.76
505.011	4.79
505.359	4.82
505.707	4.85
506.055	4.87
506.403	4.9
506.751	4.92
507.098	4.95
507.446	4.97
507.794	4.98
508.141	4.99
508.489	5
508.837	5.01
509.184	5.01
509.531	5.02
509.879	5.02
510.226	5.03
510.574	5.03
510.921	5.03
511.268	5.02
511.616	5.02
511.963	5.01
512.31	5.01
512.657	5.01
513.004	5.02
513.351	5.03
513.698	5.04
514.045	5.06
514.392	5.08
514.739	5.11
515.086	5.15
515.432	5.19
515.779	5.22
516.126	5.26
516.473	5.3
516.819	5.33
517.166	5.35
517.512	5.37
517.859	5.38
518.205	5.39
518.552	5.39
518.898	5.39
519.245	5.39
519.591	5.38
519.937	5.38
520.283	5.38
520.629	5.39
520.976	5.4
521.322	5.42
521.668	5.44
522.014	5.46
522.36	5.5
522.706	5.55
523.052	5.64
523.398	5.77
523.743	5.93
524.089	6.13
524.435	6.35
524.781	6.6
525.126	6.86
525.472	7.14
525.817	7.41
526.163	7.7
526.509	7.97
526.854	8.22
527.199	8.44
527.545	8.63
527.89	8.78
528.235	8.92
528.581	9.04
528.926	9.15
529.271	9.25
529.616	9.33
529.961	9.39
530.306	9.39
530.651	9.36
530.996	9.29
531.341	9.2
531.686	9.08
532.031	8.93
532.376	8.76
532.721	8.56
533.065	8.36
533.41	8.15
533.755	7.94
534.099	7.75
534.444	7.58
534.788	7.43
535.133	7.3
535.477	7.17
535.822	7.06
536.166	6.97
536.51	6.91
536.855	6.86
537.199	6.83
537.543	6.82
537.887	6.82
538.231	6.85
538.576	6.86
538.92	6.88
539.264	6.92
539.608	6.96
539.951	7.01
540.295	7.03
540.639	7.05
540.983	7.06
541.327	7.07
541.671	7.08
542.014	7.07
542.358	7.07
542.701	7.06
543.045	7.03
543.389	6.98
543.732	6.9
544.075	6.79
544.419	6.67
544.762	6.52
545.105	6.36
545.449	6.2
545.792	6.04
546.135	5.89
546.478	5.75
546.821	5.61
547.165	5.49
547.508	5.4
547.851	5.32
548.194	5.26
548.536	5.2
548.879	5.15
549.222	5.11
549.565	5.08
549.908	5.05
550.25	5.03
550.593	5.02
550.936	5.02
551.278	5.02
551.621	5.04
551.963	5.07
552.306	5.11
552.648	5.14
552.991	5.16
553.333	5.17
553.675	5.18
554.017	5.18
554.36	5.19
554.702	5.19
555.044	5.18
555.386	5.18
555.728	5.18
556.07	5.18
556.412	5.17
556.754	5.17
557.096	5.17
557.438	5.17
557.78	5.16
558.121	5.17
558.463	5.17
558.805	5.17
559.147	5.17
559.488	5.18
559.83	5.18
560.171	5.19
560.513	5.19
560.854	5.18
561.196	5.19
561.537	5.2
561.878	5.2
562.22	5.21
562.561	5.21
562.902	5.21
563.243	5.23
563.584	5.23
563.925	5.23
564.266	5.24
564.607	5.24
564.948	5.24
565.289	5.24
565.63	5.25
565.971	5.25
566.312	5.25
566.653	5.24
566.993	5.24
567.334	5.24
567.675	5.25
568.015	5.26
568.356	5.26
568.696	5.26
569.037	5.26
569.377	5.26
569.718	5.27
570.058	5.28
570.398	5.28
570.739	5.28
571.079	5.29
571.419	5.3
571.759	5.3
572.099	5.3
572.439	5.3
572.779	5.31
573.119	5.31
573.459	5.3
573.799	5.31
574.139	5.32
574.479	5.33
574.819	5.33
575.158	5.33
575.498	5.33
575.838	5.32
576.177	5.32
576.517	5.31
576.856	5.31
577.196	5.3
577.535	5.3
577.875	5.3
578.214	5.3
578.553	5.29
578.893	5.29
579.232	5.28
579.571	5.28
579.91	5.27
580.25	5.27
580.589	5.27
580.928	5.26
581.267	5.26
581.606	5.24
581.945	5.24
582.283	5.24
582.622	5.24
582.961	5.24
583.3	5.24
583.639	5.25
583.977	5.25
584.316	5.25
584.654	5.26
584.993	5.26
585.332	5.26
585.67	5.26
586.008	5.27
586.347	5.28
586.685	5.28
587.024	5.29
587.362	5.29
587.7	5.3
588.038	5.29
588.376	5.29
588.715	5.29
589.053	5.3
589.391	5.31
589.729	5.31
590.067	5.31
590.404	5.31
590.742	5.32
591.08	5.31
591.418	5.31
591.756	5.32
592.093	5.32
592.431	5.33
592.769	5.33
593.106	5.33
593.444	5.33
593.781	5.33
594.119	5.33
594.456	5.34
594.793	5.35
595.131	5.36
595.468	5.37
595.805	5.37
596.143	5.37
596.48	5.38
596.817	5.38
597.154	5.38
597.491	5.38
597.828	5.38
598.165	5.39
598.502	5.39
598.839	5.39
599.176	5.39
599.512	5.39
599.849	5.39
600.186	5.4
600.523	5.41
600.859	5.41
601.196	5.42
601.532	5.43
601.869	5.43
602.205	5.43
602.542	5.44
602.878	5.44
603.215	5.45
603.551	5.44
603.887	5.44
604.223	5.45
604.56	5.45
604.896	5.45
605.232	5.45
605.568	5.45
605.904	5.45
606.24	5.45
606.576	5.45
606.912	5.46
607.248	5.46
607.583	5.46
607.919	5.46
608.255	5.45
608.591	5.44
608.926	5.44
609.262	5.44
609.597	5.44
609.933	5.44
610.268	5.45
610.604	5.45
610.939	5.45
611.275	5.45
611.61	5.46
611.945	5.46
612.281	5.46
612.616	5.47
612.951	5.47
613.286	5.47
613.621	5.47
613.956	5.46
614.291	5.46
614.626	5.48
614.961	5.48
615.296	5.48
615.631	5.48
615.966	5.48
616.3	5.48
616.635	5.47
616.97	5.47
617.304	5.46
617.639	5.47
617.973	5.47
618.308	5.47
618.642	5.47
618.977	5.46
619.311	5.47
619.646	5.47
619.98	5.48
620.314	5.48
620.648	5.48
620.983	5.49
621.317	5.48
621.651	5.48
621.985	5.47
622.319	5.47
622.653	5.48
622.987	5.48
623.321	5.49
623.655	5.49
623.988	5.5
624.322	5.52
624.656	5.53
624.99	5.53
625.323	5.54
625.657	5.54
625.99	5.55
626.324	5.56
626.657	5.57
626.991	5.57
627.324	5.56
627.658	5.57
627.991	5.57
628.324	5.58
628.657	5.58
628.991	5.59
629.324	5.61
629.657	5.61
629.99	5.62
630.323	5.62
630.656	5.62
630.989	5.62
631.322	5.62
631.655	5.61
631.987	5.61
632.32	5.61
632.653	5.62
632.986	5.62
633.318	5.62
633.651	5.61
633.984	5.62
634.316	5.64
634.649	5.63
634.981	5.63
635.313	5.64
635.646	5.64
635.978	5.63
636.31	5.63
636.643	5.63
636.975	5.64
637.307	5.65
637.639	5.65
637.971	5.66
638.303	5.66
638.635	5.66
638.967	5.66
639.299	5.65
639.631	5.65
639.963	5.66
640.295	5.67
640.626	5.69
640.958	5.68
641.29	5.68
641.621	5.69
641.953	5.72
642.285	5.73
642.616	5.73
642.948	5.74
643.279	5.74
643.61	5.74
643.942	5.73
644.273	5.74
644.604	5.74
644.936	5.74
645.267	5.75
645.598	5.77
645.929	5.78
646.26	5.78
646.591	5.78
646.922	5.78
647.253	5.79
647.584	5.78
647.915	5.79
648.245	5.8
648.576	5.81
648.907	5.81
649.238	5.8
649.568	5.8
649.899	5.8
650.229	5.8
650.56	5.81
650.89	5.83
651.221	5.84
651.551	5.86
651.882	5.86
652.212	5.85
652.542	5.86
652.872	5.86
653.203	5.87
653.533	5.89
653.863	5.89
654.193	5.9
654.523	5.89
654.853	5.88
655.183	5.87
655.513	5.87
655.843	5.89
656.172	5.9
656.502	5.91
656.832	5.93
657.162	5.93
657.491	5.94
657.821	5.93
658.15	5.9
658.48	5.91
658.809	5.91
659.139	5.93
659.468	5.93
659.798	5.95
660.127	5.96
660.456	5.96
660.785	5.97
661.115	5.97
661.444	5.99
661.773	6
662.102	6.01
662.431	6.01
662.76	5.99
663.089	5.99
663.418	6.01
663.747	6.01
664.076	6.02
664.404	6.01
664.733	6.02
665.062	6.05
665.39	6.04
665.719	6.05
666.048	6.05
666.376	6.05
666.705	6.02
667.033	6.02
667.362	6.02
667.69	6.02
668.018	6.02
668.347	6.02
668.675	6.01
669.003	6.02
669.331	6.04
669.659	6.04
669.987	6.05
670.315	6.04
670.643	6.05
670.971	6.07
671.299	6.07
671.627	6.06
671.955	6.05
672.283	6.05
672.61	6.04
672.938	6.04
673.266	6.06
673.593	6.08
673.921	6.08
674.249	6.07
674.576	6.09
674.904	6.1
675.231	6.1
675.558	6.11
675.886	6.14
676.213	6.13
676.54	6.14
676.867	6.16
677.195	6.16
677.522	6.17
677.849	6.17
678.176	6.19
678.503	6.21
678.83	6.21
679.157	6.22
679.484	6.23
679.81	6.23
680.137	6.24
680.464	6.24
680.791	6.24
681.117	6.25
681.444	6.23
681.771	6.24
682.097	6.25
682.424	6.24
682.75	6.22
683.077	6.23
683.403	6.23
683.729	6.22
684.056	6.25
684.382	6.25
684.708	6.26
685.034	6.26
685.36	6.26
685.686	6.28
686.012	6.3
686.339	6.31
686.664	6.31
686.99	6.32
687.316	6.33
687.642	6.34
687.968	6.35
688.294	6.38
688.619	6.38
688.945	6.39
689.271	6.39
689.596	6.39
689.922	6.42
690.247	6.45
690.573	6.46
690.898	6.44
691.224	6.46
691.549	6.45
691.874	6.46
692.2	6.47
692.525	6.48
692.85	6.47
693.175	6.48
693.5	6.53
693.825	6.54
694.15	6.52
694.475	6.53
694.8	6.54
695.125	6.55
695.45	6.56
695.775	6.56
696.099	6.59
696.424	6.6
696.749	6.59
697.073	6.59
697.398	6.6
697.723	6.61
698.047	6.62
698.372	6.63
698.696	6.64
699.02	6.64
699.345	6.64
699.669	6.65
699.993	6.64
700.318	6.62
700.642	6.61
700.966	6.63
701.29	6.64
701.614	6.63
701.938	6.65
702.262	6.65
702.586	6.67
702.91	6.66
703.234	6.69
703.557	6.67
703.881	6.68
704.205	6.71
704.529	6.71
704.852	6.69
705.176	6.71
705.499	6.66
705.823	6.67
706.146	6.68
706.47	6.68
706.793	6.68
707.117	6.7
707.44	6.72
707.763	6.72
708.086	6.72
708.409	6.72
708.733	6.74
709.056	6.77
709.379	6.74
709.702	6.78
710.025	6.77
710.348	6.81
710.671	6.8
710.993	6.79
711.316	6.79
711.639	6.84
711.962	6.84
712.284	6.9
712.607	6.92
712.93	6.92
713.252	6.95
713.575	6.96
713.897	6.97
714.22	6.94
714.542	6.96
714.864	6.97
715.187	7.01
715.509	7.01
715.831	6.99
716.153	7.03
716.475	7.03
716.798	7.02
717.12	6.99
717.442	7.01
717.764	7.02
718.085	7.08
718.407	7.04
718.729	7.04
719.051	7.01
719.373	7.03
719.695	7.02
720.016	6.98
720.338	6.99
720.659	7
720.981	7.06
721.302	7.02
721.624	7.03
721.945	7
722.267	6.98
722.588	7.03
722.909	7.03
723.231	7.01
723.552	7.06
723.873	7.09
724.194	7.08
724.515	7.09
724.836	7.07
725.157	7.09
725.478	7.1
725.799	7.13
726.12	7.14
726.441	7.16
726.762	7.19
727.083	7.19
727.403	7.19
727.724	7.18
728.045	7.2
728.365	7.21
728.686	7.27
729.006	7.31
729.327	7.28
729.647	7.28
729.967	7.3
730.288	7.3
730.608	7.32
730.928	7.34
731.249	7.33
731.569	7.31
731.889	7.32
732.209	7.34
732.529	7.35
732.849	7.35
733.169	7.37
733.489	7.37
733.809	7.38
734.129	7.42
734.448	7.42
734.768	7.44
735.088	7.45
735.408	7.44
735.727	7.44
736.047	7.48
736.366	7.49
736.686	7.52
737.005	7.52
737.325	7.5
737.644	7.54
737.963	7.55
738.283	7.59
738.602	7.59
738.921	7.58
739.24	7.58
739.56	7.58
739.879	7.59
740.198	7.65
740.517	7.67
740.836	7.66
741.155	7.65
741.473	7.7
741.792	7.66
742.111	7.68
742.43	7.68
742.748	7.68
743.067	7.7
743.386	7.7
743.704	7.71
744.023	7.73
744.341	7.7
744.66	7.75
744.978	7.76
745.297	7.78
745.615	7.79
745.933	7.78
746.252	7.81
746.57	7.82
746.888	7.79
747.206	7.78
747.524	7.77
747.842	7.79
748.16	7.78
748.478	7.83
748.796	7.78
749.114	7.8
749.432	7.8
749.749	7.82
750.067	7.81
750.385	7.81
750.703	7.8
751.02	7.79
751.338	7.77
751.655	7.74
751.973	7.74
752.29	7.76
752.608	7.8
752.925	7.78
753.242	7.83
753.56	7.86
753.877	7.87
754.194	7.91
754.511	7.93
754.828	7.95
755.145	8
755.462	8.05
755.779	8.07
756.096	8.09
756.413	8.08
756.73	8.11
757.047	8.13
757.364	8.17
757.68	8.21
757.997	8.27
758.314	8.29
758.63	8.31
758.947	8.36
759.264	8.35
759.58	8.33
759.896	8.3
760.213	8.35
760.529	8.35
760.846	8.32
761.162	8.35
761.478	8.35
761.794	8.32
762.11	8.34
762.426	8.35
762.743	8.35
763.059	8.41
763.375	8.41
763.69	8.42
764.006	8.43
764.322	8.46
764.638	8.41
764.954	8.46
765.27	8.49
765.585	8.49
765.901	8.49
766.216	8.49
766.532	8.49
766.848	8.48
767.163	8.54
767.478	8.57
767.794	8.57
768.109	8.57
768.424	8.57
768.74	8.59
769.055	8.6
769.37	8.64
769.685	8.61
770	8.65
770.315	8.64
770.63	8.68
770.945	8.66
771.26	8.7
771.575	8.61
771.89	8.56
772.205	8.63
772.52	8.61
772.834	8.65
773.149	8.68
773.464	8.66
773.778	8.67
774.093	8.69
774.407	8.76
774.722	8.81
775.036	8.83
775.351	8.78
775.665	8.75
775.979	8.71
776.293	8.72
776.608	8.69
776.922	8.71
777.236	8.69
777.55	8.76
777.864	8.8
778.178	8.85
778.492	8.93
778.806	8.87
779.12	8.9
779.434	8.99
779.747	8.92
780.061	8.96
780.375	8.91
780.689	8.92
781.002	8.91
781.316	8.91
781.629	8.96
781.943	9.04
782.256	9.13
782.57	9.2
782.883	9.17
783.196	9.26
783.51	9.27
783.823	9.3
784.136	9.24
784.449	9.24
784.762	9.29
785.075	9.26
785.388	9.3
785.701	9.33
786.014	9.27
786.327	9.39
786.64	9.33
786.953	9.38
787.266	9.41
787.578	9.4
787.891	9.4
788.204	9.45
788.516	9.51
788.829	9.52
789.141	9.43
789.454	9.52
789.766	9.48
790.079	9.47
790.391	9.46
790.703	9.56
791.016	9.59
791.328	9.6
791.64	9.63
791.952	9.63
792.264	9.7
792.576	9.7
792.888	9.68
793.2	9.76
793.512	9.79
793.824	9.76
794.136	9.76
794.448	9.88
794.76	9.84
795.071	9.85
795.383	9.88
795.695	10.03
796.006	9.99
796.318	9.98
796.629	10.04
796.941	10.06
797.252	10.05
797.564	10
797.875	9.97
798.186	9.92
798.497	9.97
798.809	9.93
799.12	9.96
799.431	9.99
799.742	9.99
800.053	9.96
800.364	10.06
800.675	10.08
800.986	10.02
801.297	10.05
801.608	9.97
801.918	9.96
802.229	9.95
802.54	9.96
802.851	9.93
803.161	9.87
803.472	9.93
803.782	9.92
804.093	9.95
804.403	9.96
804.714	10.1
805.024	10.01
805.334	10.05
805.645	10.11
805.955	10.14
806.265	10.09
806.575	10.12
806.885	10.06
807.195	10.16
807.505	10.2
807.815	10.23
808.125	10.3
808.435	10.37
808.745	10.35
809.055	10.32
809.365	10.47
809.674	10.52
809.984	10.49
810.294	10.49
810.603	10.55
810.913	10.66
811.222	10.57
811.532	10.71
811.841	10.75
812.151	10.81
812.46	10.8
812.769	10.86
813.079	10.93
813.388	10.94
813.697	10.86
814.006	10.8
814.315	10.89
814.624	10.9
814.933	10.88
815.242	10.85
815.551	11.03
815.86	10.99
816.169	11.07
816.478	11.13
816.786	11.07
817.095	11.11
817.404	11.08
817.712	11.17
818.021	11.16
818.33	11.13
818.638	11.03
818.947	11.02
819.255	10.99
819.563	10.92
819.872	10.9
820.18	10.9
820.488	10.88
820.796	10.8
821.105	10.79
821.413	10.77
821.721	10.81
822.029	10.75
822.337	10.77
822.645	10.79
822.953	10.81
823.26	10.83
823.568	10.86
823.876	10.86
824.184	10.83
824.491	10.84
824.799	10.85
825.107	10.87
825.414	10.89
825.722	10.91
826.029	10.94
826.337	10.96
826.644	10.96
826.951	10.98
827.259	11.01
827.566	11.05
827.873	11.08
828.18	11.08
828.488	11.1
828.795	11.13
829.102	11.14
829.409	11.14
829.716	11.18
830.023	11.14
830.329	11.18
830.636	11.21
830.943	11.27
831.25	11.32
831.557	11.28
831.863	11.28
832.17	11.34
832.476	11.34
832.783	11.37
833.089	11.44
833.396	11.48
833.702	11.5
834.009	11.49
834.315	11.54
834.621	11.53
834.928	11.59
835.234	11.59
835.54	11.59
835.846	11.62
836.152	11.62
836.458	11.69
836.764	11.66
837.07	11.72
837.376	11.63
837.682	11.58
837.988	11.67
838.293	11.76
838.599	11.74
838.905	11.76
839.211	11.86
839.516	11.96
839.822	12.07
840.127	12.04
840.433	12.13
840.738	12.1
841.044	12.23
841.349	12.35
841.654	12.4
841.959	12.49
842.265	12.45
842.57	12.41
842.875	12.35
843.18	12.49
843.485	12.55
843.79	12.62
844.095	12.8
844.4	12.79
844.705	12.86
845.01	12.79
845.315	12.72
845.619	12.67
845.924	12.45
846.229	12.31
846.533	12.47
846.838	12.53
847.142	12.4
847.447	12.44
847.751	12.28
848.056	12.48
848.36	12.28
848.664	12.14
848.969	12.09
849.273	12.28
849.577	12.21
849.881	12.06
850.185	12.02
850.489	11.87
850.794	12.05
851.097	11.88
851.401	11.99
851.705	12.29
852.009	12.49
852.313	12.34
852.617	12.47
852.92	12.27
853.224	12.26
853.528	12.84
853.831	12.97
854.135	13.17
854.438	12.91
854.742	13.24
855.045	13.35
855.349	13.48
855.652	13.46
855.955	13.27
856.259	13.39
856.562	13.79
856.865	13.99
857.168	13.87
857.471	13.96
857.774	13.84
858.077	13.92
858.38	13.95
858.683	14.18
858.986	14.07
859.289	14.57
859.592	14.52
859.894	14.23
860.197	14.36
860.5	14.2
860.802	14.3
861.105	14.09
861.407	14.35
861.71	14.52
862.012	14.57
862.315	14.71
862.617	14.52
862.919	14.44
863.222	14.35
863.524	14.24
863.826	14.54
864.128	14.89
864.43	14.64
864.732	14.38
865.034	14.87
865.336	15.11
865.638	14.9
865.94	14.98
866.242	14.99
866.544	14.89
866.846	15.09
867.147	15.05
867.449	14.95
867.751	14.9
868.052	14.93
868.354	14.81
868.655	15.08
868.957	15.44
869.258	15.25
869.56	15.31
869.861	15.54
870.162	15.34
870.463	15.38
870.765	15.36
871.066	15.58
871.367	15.15
871.668	14.96
871.969	14.89
872.27	14.99
872.571	15.1
872.872	15.28
873.173	15.47
873.473	15.63
873.774	16.03
874.075	16.15
874.376	16.31
874.676	16.25
874.977	16.3
875.277	16.03
875.578	15.91
875.878	15.97
876.179	15.91
876.479	15.89
876.78	15.78
877.08	16.05
877.38	15.91
877.68	16.04
877.981	16.28
878.281	16.62
878.581	16.55
