Data from UWBM79812_Reflection_00015.txt Node
Date: Sun May 02 13:59:07 EDT 2021
User: vgr7
Spectrometer: USB2G7710
Scans to average: 10
Trigger mode: 4
Integration Time (sec): 1.000000E-1
Electric dark correction enabled: true
Boxcar width: 20
XAxis mode: Wavelengths
Number of Pixels in Spectrum: 2048
>>>>>Begin Spectral Data<<<<<
177.721	74.33
178.105	95.41
178.488	146.66
178.871	137.6
179.254	128.39
179.636	112.93
180.019	86.03
180.402	73.68
180.785	63.19
181.168	56.12
181.55	40.6
181.933	34.17
182.316	27.76
182.698	26.43
183.081	18.89
183.463	19.59
183.846	17.4
184.228	18.34
184.611	19.63
184.993	18.03
185.376	19.27
185.758	23.59
186.14	25.79
186.522	22.41
186.904	23.34
187.287	25.72
187.669	26.68
188.051	27.25
188.433	24.88
188.815	22.15
189.197	23.91
189.579	21.83
189.961	20.37
190.342	19.9
190.724	21.47
191.106	19.76
191.488	19.26
191.869	18.07
192.251	16.6
192.633	15.23
193.014	15.19
193.396	11.58
193.777	12.45
194.159	11.95
194.54	11.87
194.922	10.19
195.303	10.97
195.684	10.36
196.065	10.12
196.447	10.38
196.828	10.8
197.209	12.21
197.59	10.47
197.971	10.63
198.352	11.43
198.733	15.21
199.114	14.82
199.495	16.44
199.876	15.55
200.257	13.93
200.638	13.11
201.018	13.52
201.399	13.41
201.78	12.86
202.16	13.43
202.541	11.97
202.922	10.5
203.302	11.01
203.683	12.23
204.063	13.25
204.444	12
204.824	11.46
205.204	11.85
205.585	14.42
205.965	14.67
206.345	13.06
206.725	14.21
207.106	13.3
207.486	12.46
207.866	13.37
208.246	12.43
208.626	10.87
209.006	11.64
209.386	11.3
209.766	9.59
210.145	8.69
210.525	7.75
210.905	6.82
211.285	6.21
211.664	6.74
212.044	6.34
212.424	4.78
212.803	4.53
213.183	5.98
213.562	7.91
213.942	6.97
214.321	5.28
214.701	3.37
215.08	2.69
215.459	2.84
215.838	3.36
216.218	3.22
216.597	2.45
216.976	2.21
217.355	2.95
217.734	2.77
218.113	2.96
218.492	3.31
218.871	2.98
219.25	2.36
219.629	2.95
220.008	3.71
220.387	3.04
220.766	3.31
221.144	2.12
221.523	2.5
221.902	3.53
222.28	3.79
222.659	3.53
223.037	3.68
223.416	4.01
223.794	4.23
224.173	5.01
224.551	5.21
224.929	5.66
225.308	5.88
225.686	5.83
226.064	6.26
226.442	6.46
226.821	7.05
227.199	6.91
227.577	6.37
227.955	6.91
228.333	7.13
228.711	6.67
229.089	5.83
229.467	5.65
229.845	5.59
230.222	6.13
230.6	6.1
230.978	6.22
231.356	6.26
231.733	6.48
232.111	6.16
232.488	5.76
232.866	5.47
233.243	5.24
233.621	5.14
233.998	5.06
234.376	4.84
234.753	4.7
235.13	4.63
235.508	4.63
235.885	4.56
236.262	4.57
236.639	4.58
237.016	4.44
237.393	4.45
237.77	4.3
238.147	4.45
238.524	4.39
238.901	4.33
239.278	4.43
239.655	4.43
240.032	4.42
240.409	4.36
240.785	4.44
241.162	4.49
241.539	4.44
241.915	4.46
242.292	4.44
242.668	4.45
243.045	4.5
243.421	4.47
243.798	4.45
244.174	4.51
244.551	4.51
244.927	4.53
245.303	4.53
245.679	4.51
246.056	4.46
246.432	4.47
246.808	4.46
247.184	4.48
247.56	4.52
247.936	4.52
248.312	4.51
248.688	4.55
249.064	4.55
249.44	4.55
249.815	4.55
250.191	4.53
250.567	4.52
250.943	4.49
251.318	4.47
251.694	4.45
252.069	4.44
252.445	4.45
252.82	4.43
253.196	4.41
253.571	4.37
253.947	4.37
254.322	4.34
254.697	4.3
255.073	4.27
255.448	4.27
255.823	4.24
256.198	4.21
256.573	4.18
256.948	4.2
257.323	4.16
257.698	4.11
258.073	4.08
258.448	4.05
258.823	4.05
259.198	4.03
259.573	3.99
259.948	3.99
260.322	4
260.697	3.98
261.072	3.98
261.446	3.97
261.821	3.95
262.195	3.95
262.57	3.92
262.944	3.9
263.319	3.92
263.693	3.93
264.067	3.92
264.442	3.91
264.816	3.89
265.19	3.89
265.564	3.89
265.938	3.89
266.313	3.91
266.687	3.9
267.061	3.9
267.435	3.9
267.809	3.88
268.183	3.87
268.556	3.87
268.93	3.86
269.304	3.86
269.678	3.87
270.051	3.86
270.425	3.86
270.799	3.86
271.172	3.87
271.546	3.89
271.919	3.9
272.293	3.89
272.666	3.9
273.04	3.92
273.413	3.94
273.787	3.95
274.16	3.93
274.533	3.94
274.906	3.94
275.279	3.95
275.653	3.93
276.026	3.94
276.399	3.94
276.772	3.95
277.145	3.95
277.518	3.95
277.891	3.96
278.263	3.96
278.636	3.95
279.009	3.93
279.382	3.92
279.755	3.93
280.127	3.96
280.5	3.97
280.872	3.98
281.245	3.98
281.617	3.98
281.99	4
282.362	3.99
282.735	4
283.107	4.01
283.479	4
283.852	4.03
284.224	4.06
284.596	4.06
284.968	4.07
285.34	4.08
285.713	4.11
286.085	4.12
286.457	4.12
286.829	4.13
287.201	4.16
287.572	4.16
287.944	4.17
288.316	4.18
288.688	4.2
289.06	4.22
289.431	4.24
289.803	4.27
290.175	4.29
290.546	4.3
290.918	4.34
291.289	4.37
291.661	4.39
292.032	4.41
292.403	4.44
292.775	4.47
293.146	4.5
293.517	4.53
293.889	4.58
294.26	4.63
294.631	4.68
295.002	4.71
295.373	4.74
295.744	4.78
296.115	4.81
296.486	4.85
296.857	4.89
297.228	4.93
297.599	4.99
297.97	5.02
298.34	5.06
298.711	5.11
299.082	5.16
299.452	5.21
299.823	5.25
300.194	5.3
300.564	5.36
300.935	5.39
301.305	5.44
301.676	5.5
302.046	5.54
302.416	5.59
302.787	5.64
303.157	5.7
303.527	5.76
303.897	5.82
304.267	5.89
304.637	5.96
305.008	6.04
305.378	6.12
305.748	6.2
306.117	6.27
306.487	6.33
306.857	6.43
307.227	6.5
307.597	6.58
307.967	6.65
308.336	6.72
308.706	6.77
309.076	6.82
309.445	6.88
309.815	6.92
310.184	6.98
310.554	7.04
310.923	7.11
311.293	7.17
311.662	7.23
312.031	7.29
312.401	7.34
312.77	7.4
313.139	7.46
313.508	7.53
313.877	7.6
314.246	7.66
314.616	7.7
314.985	7.75
315.353	7.81
315.722	7.87
316.091	7.94
316.46	7.99
316.829	8.07
317.198	8.14
317.567	8.21
317.935	8.29
318.304	8.37
318.672	8.43
319.041	8.52
319.41	8.59
319.778	8.65
320.147	8.69
320.515	8.75
320.883	8.8
321.252	8.86
321.62	8.93
321.988	8.98
322.357	9.03
322.725	9.08
323.093	9.11
323.461	9.17
323.829	9.24
324.197	9.29
324.565	9.33
324.933	9.39
325.301	9.44
325.669	9.5
326.037	9.54
326.405	9.59
326.772	9.64
327.14	9.69
327.508	9.73
327.875	9.77
328.243	9.8
328.61	9.83
328.978	9.87
329.346	9.92
329.713	9.97
330.08	10.04
330.448	10.07
330.815	10.11
331.182	10.13
331.55	10.17
331.917	10.21
332.284	10.24
332.651	10.27
333.018	10.31
333.385	10.36
333.752	10.41
334.119	10.45
334.486	10.51
334.853	10.57
335.22	10.62
335.587	10.66
335.954	10.71
336.32	10.76
336.687	10.79
337.054	10.82
337.42	10.86
337.787	10.9
338.153	10.96
338.52	10.99
338.886	11.02
339.253	11.07
339.619	11.11
339.986	11.15
340.352	11.19
340.718	11.21
341.084	11.24
341.451	11.27
341.817	11.3
342.183	11.33
342.549	11.37
342.915	11.41
343.281	11.44
343.647	11.48
344.013	11.5
344.379	11.51
344.745	11.53
345.11	11.56
345.476	11.6
345.842	11.63
346.208	11.66
346.573	11.69
346.939	11.71
347.304	11.74
347.67	11.76
348.035	11.79
348.401	11.81
348.766	11.83
349.132	11.85
349.497	11.85
349.862	11.87
350.228	11.89
350.593	11.91
350.958	11.93
351.323	11.94
351.688	11.96
352.053	11.98
352.418	11.99
352.783	11.99
353.148	12
353.513	11.99
353.878	11.99
354.243	12
354.608	12.01
354.972	12.01
355.337	12
355.702	12.01
356.066	12.01
356.431	12
356.795	12
357.16	11.98
357.524	11.97
357.889	11.96
358.253	11.95
358.618	11.93
358.982	11.92
359.346	11.93
359.71	11.91
360.075	11.9
360.439	11.87
360.803	11.86
361.167	11.85
361.531	11.82
361.895	11.81
362.259	11.79
362.623	11.77
362.987	11.75
363.351	11.71
363.714	11.69
364.078	11.66
364.442	11.64
364.806	11.6
365.169	11.57
365.533	11.54
365.896	11.5
366.26	11.47
366.623	11.43
366.987	11.39
367.35	11.35
367.714	11.32
368.077	11.29
368.44	11.24
368.803	11.2
369.167	11.15
369.53	11.09
369.893	11.02
370.256	10.97
370.619	10.91
370.982	10.85
371.345	10.8
371.708	10.74
372.071	10.68
372.434	10.62
372.797	10.56
373.159	10.51
373.522	10.45
373.885	10.4
374.247	10.33
374.61	10.26
374.973	10.19
375.335	10.13
375.698	10.06
376.06	10
376.423	9.94
376.785	9.87
377.147	9.81
377.51	9.75
377.872	9.68
378.234	9.61
378.596	9.55
378.958	9.49
379.321	9.42
379.683	9.37
380.045	9.31
380.407	9.25
380.769	9.18
381.13	9.12
381.492	9.06
381.854	9
382.216	8.94
382.578	8.88
382.939	8.82
383.301	8.77
383.663	8.71
384.024	8.65
384.386	8.6
384.747	8.55
385.109	8.5
385.47	8.44
385.832	8.39
386.193	8.33
386.554	8.28
386.916	8.23
387.277	8.18
387.638	8.13
387.999	8.08
388.36	8.03
388.721	7.98
389.082	7.94
389.443	7.89
389.804	7.85
390.165	7.81
390.526	7.76
390.887	7.72
391.248	7.68
391.609	7.63
391.969	7.59
392.33	7.54
392.691	7.5
393.051	7.45
393.412	7.41
393.772	7.37
394.133	7.32
394.493	7.27
394.854	7.22
395.214	7.18
395.574	7.13
395.935	7.08
396.295	7.04
396.655	6.99
397.015	6.94
397.376	6.89
397.736	6.85
398.096	6.8
398.456	6.75
398.816	6.71
399.176	6.66
399.535	6.62
399.895	6.58
400.255	6.54
400.615	6.49
400.975	6.45
401.334	6.41
401.694	6.37
402.054	6.33
402.413	6.29
402.773	6.25
403.132	6.22
403.492	6.19
403.851	6.15
404.211	6.12
404.57	6.09
404.929	6.06
405.288	6.03
405.648	6
406.007	5.98
406.366	5.95
406.725	5.93
407.084	5.91
407.443	5.88
407.802	5.86
408.161	5.84
408.52	5.82
408.879	5.8
409.238	5.78
409.596	5.75
409.955	5.74
410.314	5.72
410.673	5.7
411.031	5.69
411.39	5.68
411.748	5.66
412.107	5.65
412.465	5.64
412.824	5.64
413.182	5.65
413.54	5.66
413.899	5.67
414.257	5.69
414.615	5.72
414.974	5.74
415.332	5.77
415.69	5.8
416.048	5.82
416.406	5.85
416.764	5.87
417.122	5.89
417.48	5.91
417.838	5.93
418.195	5.94
418.553	5.95
418.911	5.95
419.269	5.94
419.626	5.92
419.984	5.89
420.342	5.86
420.699	5.83
421.057	5.79
421.414	5.75
421.772	5.72
422.129	5.69
422.486	5.67
422.844	5.65
423.201	5.64
423.558	5.62
423.915	5.6
424.273	5.59
424.63	5.58
424.987	5.56
425.344	5.54
425.701	5.53
426.058	5.51
426.415	5.49
426.772	5.47
427.128	5.46
427.485	5.43
427.842	5.4
428.199	5.37
428.555	5.33
428.912	5.29
429.269	5.24
429.625	5.2
429.982	5.15
430.338	5.1
430.695	5.06
431.051	5.01
431.407	4.98
431.764	4.95
432.12	4.91
432.476	4.89
432.832	4.87
433.189	4.86
433.545	4.86
433.901	4.87
434.257	4.89
434.613	4.91
434.969	4.94
435.325	4.97
435.681	5.01
436.036	5.03
436.392	5.05
436.748	5.07
437.104	5.08
437.459	5.1
437.815	5.12
438.171	5.14
438.526	5.17
438.882	5.2
439.237	5.24
439.593	5.28
439.948	5.31
440.304	5.35
440.659	5.38
441.014	5.4
441.369	5.43
441.725	5.45
442.08	5.46
442.435	5.47
442.79	5.48
443.145	5.48
443.5	5.47
443.855	5.47
444.21	5.46
444.565	5.45
444.92	5.44
445.275	5.42
445.629	5.41
445.984	5.39
446.339	5.37
446.693	5.35
447.048	5.32
447.403	5.3
447.757	5.26
448.112	5.23
448.466	5.2
448.82	5.16
449.175	5.13
449.529	5.1
449.883	5.07
450.238	5.03
450.592	5.02
450.946	5
451.3	4.99
451.654	5
452.008	4.99
452.362	4.98
452.716	4.98
453.07	4.97
453.424	4.95
453.778	4.93
454.132	4.92
454.486	4.9
454.839	4.87
455.193	4.84
455.547	4.82
455.9	4.79
456.254	4.76
456.607	4.73
456.961	4.69
457.314	4.67
457.668	4.65
458.021	4.65
458.375	4.64
458.728	4.64
459.081	4.65
459.434	4.66
459.787	4.67
460.141	4.68
460.494	4.69
460.847	4.7
461.2	4.71
461.553	4.72
461.906	4.74
462.259	4.75
462.611	4.75
462.964	4.77
463.317	4.78
463.67	4.79
464.022	4.81
464.375	4.82
464.728	4.83
465.08	4.84
465.433	4.85
465.785	4.85
466.138	4.84
466.49	4.83
466.843	4.82
467.195	4.81
467.547	4.8
467.899	4.78
468.252	4.76
468.604	4.75
468.956	4.74
469.308	4.73
469.66	4.74
470.012	4.74
470.364	4.76
470.716	4.77
471.068	4.8
471.42	4.83
471.772	4.86
472.123	4.89
472.475	4.91
472.827	4.93
473.178	4.95
473.53	4.96
473.882	4.99
474.233	5.02
474.585	5.07
474.936	5.15
475.288	5.26
475.639	5.4
475.99	5.56
476.342	5.75
476.693	5.94
477.044	6.13
477.395	6.34
477.746	6.55
478.097	6.75
478.448	6.96
478.8	7.16
479.15	7.35
479.501	7.53
479.852	7.68
480.203	7.84
480.554	7.98
480.905	8.11
481.255	8.23
481.606	8.36
481.957	8.47
482.307	8.58
482.658	8.68
483.009	8.77
483.359	8.87
483.709	8.97
484.06	9.05
484.41	9.14
484.761	9.22
485.111	9.3
485.461	9.38
485.811	9.45
486.162	9.52
486.512	9.58
486.862	9.62
487.212	9.65
487.562	9.67
487.912	9.68
488.262	9.69
488.612	9.68
488.961	9.66
489.311	9.61
489.661	9.53
490.011	9.43
490.36	9.31
490.71	9.17
491.06	9.01
491.409	8.86
491.759	8.69
492.108	8.51
492.458	8.34
492.807	8.15
493.157	7.97
493.506	7.79
493.855	7.63
494.204	7.48
494.554	7.34
494.903	7.21
495.252	7.09
495.601	6.98
495.95	6.87
496.299	6.77
496.648	6.68
496.997	6.61
497.346	6.53
497.695	6.46
498.043	6.4
498.392	6.34
498.741	6.28
499.09	6.24
499.438	6.2
499.787	6.17
500.135	6.14
500.484	6.12
500.832	6.12
501.181	6.13
501.529	6.17
501.878	6.22
502.226	6.28
502.574	6.34
502.923	6.42
503.271	6.49
503.619	6.57
503.967	6.65
504.315	6.73
504.663	6.81
505.011	6.9
505.359	6.99
505.707	7.07
506.055	7.17
506.403	7.27
506.751	7.37
507.098	7.48
507.446	7.58
507.794	7.7
508.141	7.82
508.489	7.94
508.837	8.08
509.184	8.22
509.531	8.36
509.879	8.5
510.226	8.66
510.574	8.83
510.921	9.01
511.268	9.18
511.616	9.37
511.963	9.56
512.31	9.76
512.657	9.95
513.004	10.14
513.351	10.33
513.698	10.5
514.045	10.66
514.392	10.81
514.739	10.96
515.086	11.1
515.432	11.25
515.779	11.39
516.126	11.53
516.473	11.69
516.819	11.86
517.166	12.05
517.512	12.25
517.859	12.47
518.205	12.71
518.552	12.97
518.898	13.25
519.245	13.57
519.591	13.96
519.937	14.42
520.283	14.95
520.629	15.52
520.976	16.13
521.322	16.76
521.668	17.4
522.014	18.06
522.36	18.71
522.706	19.36
523.052	19.98
523.398	20.58
523.743	21.12
524.089	21.62
524.435	22.08
524.781	22.53
525.126	22.97
525.472	23.41
525.817	23.82
526.163	24.24
526.509	24.64
526.854	25.04
527.199	25.44
527.545	25.83
527.89	26.25
528.235	26.65
528.581	27.03
528.926	27.39
529.271	27.74
529.616	28.06
529.961	28.39
530.306	28.69
530.651	28.97
530.996	29.23
531.341	29.45
531.686	29.67
532.031	29.87
532.376	30.09
532.721	30.33
533.065	30.59
533.41	30.86
533.755	31.1
534.099	31.31
534.444	31.48
534.788	31.62
535.133	31.74
535.477	31.85
535.822	31.93
536.166	31.97
536.51	31.97
536.855	31.91
537.199	31.82
537.543	31.73
537.887	31.68
538.231	31.66
538.576	31.64
538.92	31.62
539.264	31.58
539.608	31.53
539.951	31.46
540.295	31.38
540.639	31.3
540.983	31.19
541.327	31.07
541.671	30.93
542.014	30.82
542.358	30.73
542.701	30.71
543.045	30.75
543.389	30.82
543.732	30.91
544.075	31.01
544.419	31.13
544.762	31.26
545.105	31.4
545.449	31.56
545.792	31.72
546.135	31.88
546.478	32.01
546.821	32.1
547.165	32.13
547.508	32.1
547.851	32.04
548.194	31.95
548.536	31.8
548.879	31.64
549.222	31.45
549.565	31.26
549.908	31.07
550.25	30.9
550.593	30.79
550.936	30.74
551.278	30.74
551.621	30.78
551.963	30.84
552.306	30.92
552.648	31.03
552.991	31.17
553.333	31.32
553.675	31.51
554.017	31.73
554.36	31.97
554.702	32.24
555.044	32.54
555.386	32.89
555.728	33.27
556.07	33.61
556.412	33.95
556.754	34.22
557.096	34.44
557.438	34.66
557.78	34.88
558.121	35.11
558.463	35.35
558.805	35.57
559.147	35.81
559.488	36.04
559.83	36.26
560.171	36.48
560.513	36.7
560.854	36.91
561.196	37.14
561.537	37.36
561.878	37.57
562.22	37.76
562.561	37.96
562.902	38.15
563.243	38.36
563.584	38.56
563.925	38.75
564.266	38.95
564.607	39.14
564.948	39.33
565.289	39.51
565.63	39.7
565.971	39.88
566.312	40.06
566.653	40.23
566.993	40.41
567.334	40.57
567.675	40.72
568.015	40.88
568.356	41.03
568.696	41.18
569.037	41.32
569.377	41.47
569.718	41.61
570.058	41.74
570.398	41.87
570.739	41.99
571.079	42.11
571.419	42.23
571.759	42.35
572.099	42.46
572.439	42.57
572.779	42.67
573.119	42.77
573.459	42.87
573.799	42.97
574.139	43.07
574.479	43.17
574.819	43.27
575.158	43.37
575.498	43.45
575.838	43.54
576.177	43.63
576.517	43.73
576.856	43.81
577.196	43.89
577.535	43.98
577.875	44.05
578.214	44.13
578.553	44.2
578.893	44.27
579.232	44.36
579.571	44.43
579.91	44.51
580.25	44.59
580.589	44.66
580.928	44.73
581.267	44.8
581.606	44.87
581.945	44.95
582.283	45.03
582.622	45.1
582.961	45.17
583.3	45.24
583.639	45.31
583.977	45.39
584.316	45.46
584.654	45.52
584.993	45.61
585.332	45.68
585.67	45.75
586.008	45.81
586.347	45.88
586.685	45.96
587.024	46.03
587.362	46.11
587.7	46.18
588.038	46.25
588.376	46.33
588.715	46.4
589.053	46.47
589.391	46.55
589.729	46.63
590.067	46.7
590.404	46.77
590.742	46.85
591.08	46.91
591.418	46.98
591.756	47.04
592.093	47.1
592.431	47.17
592.769	47.23
593.106	47.28
593.444	47.32
593.781	47.37
594.119	47.41
594.456	47.46
594.793	47.51
595.131	47.56
595.468	47.61
595.805	47.65
596.143	47.71
596.48	47.78
596.817	47.84
597.154	47.89
597.491	47.96
597.828	48.01
598.165	48.08
598.502	48.15
598.839	48.2
599.176	48.25
599.512	48.28
599.849	48.34
600.186	48.38
600.523	48.42
600.859	48.46
601.196	48.49
601.532	48.52
601.869	48.56
602.205	48.59
602.542	48.62
602.878	48.66
603.215	48.69
603.551	48.72
603.887	48.74
604.223	48.77
604.56	48.8
604.896	48.82
605.232	48.85
605.568	48.87
605.904	48.89
606.24	48.91
606.576	48.93
606.912	48.95
607.248	48.98
607.583	49
607.919	49.02
608.255	49.03
608.591	49.06
608.926	49.08
609.262	49.09
609.597	49.11
609.933	49.13
610.268	49.14
610.604	49.15
610.939	49.17
611.275	49.17
611.61	49.18
611.945	49.19
612.281	49.18
612.616	49.18
612.951	49.19
613.286	49.2
613.621	49.2
613.956	49.21
614.291	49.23
614.626	49.25
614.961	49.27
615.296	49.29
615.631	49.31
615.966	49.32
616.3	49.34
616.635	49.35
616.97	49.34
617.304	49.36
617.639	49.37
617.973	49.37
618.308	49.38
618.642	49.39
618.977	49.41
619.311	49.44
619.646	49.46
619.98	49.49
620.314	49.51
620.648	49.53
620.983	49.55
621.317	49.58
621.651	49.6
621.985	49.62
622.319	49.64
622.653	49.65
622.987	49.68
623.321	49.69
623.655	49.71
623.988	49.73
624.322	49.74
624.656	49.76
624.99	49.79
625.323	49.8
625.657	49.81
625.99	49.83
626.324	49.85
626.657	49.87
626.991	49.9
627.324	49.9
627.658	49.9
627.991	49.91
628.324	49.91
628.657	49.92
628.991	49.93
629.324	49.94
629.657	49.94
629.99	49.95
630.323	49.95
630.656	49.98
630.989	50
631.322	50.02
631.655	50.04
631.987	50.06
632.32	50.08
632.653	50.08
632.986	50.1
633.318	50.11
633.651	50.11
633.984	50.13
634.316	50.14
634.649	50.15
634.981	50.16
635.313	50.17
635.646	50.17
635.978	50.19
636.31	50.21
636.643	50.22
636.975	50.23
637.307	50.23
637.639	50.24
637.971	50.25
638.303	50.25
638.635	50.25
638.967	50.26
639.299	50.27
639.631	50.28
639.963	50.29
640.295	50.3
640.626	50.3
640.958	50.34
641.29	50.37
641.621	50.39
641.953	50.4
642.285	50.4
642.616	50.41
642.948	50.42
643.279	50.44
643.61	50.47
643.942	50.48
644.273	50.49
644.604	50.5
644.936	50.5
645.267	50.5
645.598	50.51
645.929	50.52
646.26	50.54
646.591	50.54
646.922	50.55
647.253	50.56
647.584	50.57
647.915	50.58
648.245	50.59
648.576	50.59
648.907	50.61
649.238	50.63
649.568	50.64
649.899	50.65
650.229	50.67
650.56	50.69
650.89	50.7
651.221	50.69
651.551	50.72
651.882	50.74
652.212	50.76
652.542	50.78
652.872	50.8
653.203	50.8
653.533	50.8
653.863	50.79
654.193	50.82
654.523	50.82
654.853	50.82
655.183	50.83
655.513	50.85
655.843	50.86
656.172	50.86
656.502	50.87
656.832	50.88
657.162	50.87
657.491	50.87
657.821	50.88
658.15	50.89
658.48	50.91
658.809	50.93
659.139	50.94
659.468	50.94
659.798	50.94
660.127	50.95
660.456	50.95
660.785	50.96
661.115	50.97
661.444	50.98
661.773	50.99
662.102	51
662.431	50.99
662.76	51
663.089	51
663.418	51.01
663.747	51.02
664.076	51.03
664.404	51.04
664.733	51.04
665.062	51.05
665.39	51.05
665.719	51.06
666.048	51.07
666.376	51.08
666.705	51.09
667.033	51.1
667.362	51.12
667.69	51.12
668.018	51.11
668.347	51.1
668.675	51.1
669.003	51.12
669.331	51.13
669.659	51.14
669.987	51.16
670.315	51.17
670.643	51.21
670.971	51.23
671.299	51.24
671.627	51.24
671.955	51.23
672.283	51.24
672.61	51.24
672.938	51.25
673.266	51.28
673.593	51.28
673.921	51.29
674.249	51.31
674.576	51.31
674.904	51.32
675.231	51.32
675.558	51.32
675.886	51.33
676.213	51.34
676.54	51.34
676.867	51.35
677.195	51.35
677.522	51.35
677.849	51.36
678.176	51.38
678.503	51.38
678.83	51.38
679.157	51.38
679.484	51.38
679.81	51.37
680.137	51.38
680.464	51.39
680.791	51.39
681.117	51.4
681.444	51.41
681.771	51.42
682.097	51.43
682.424	51.42
682.75	51.43
683.077	51.45
683.403	51.46
683.729	51.46
684.056	51.44
684.382	51.45
684.708	51.45
685.034	51.46
685.36	51.47
685.686	51.48
686.012	51.49
686.339	51.49
686.664	51.48
686.99	51.5
687.316	51.5
687.642	51.51
687.968	51.52
688.294	51.51
688.619	51.53
688.945	51.55
689.271	51.57
689.596	51.57
689.922	51.58
690.247	51.59
690.573	51.59
690.898	51.62
691.224	51.63
691.549	51.62
691.874	51.64
692.2	51.64
692.525	51.66
692.85	51.68
693.175	51.69
693.5	51.71
693.825	51.72
694.15	51.73
694.475	51.73
694.8	51.74
695.125	51.77
695.45	51.77
695.775	51.78
696.099	51.79
696.424	51.78
696.749	51.79
697.073	51.8
697.398	51.82
697.723	51.84
698.047	51.86
698.372	51.88
698.696	51.9
699.02	51.91
699.345	51.92
699.669	51.92
699.993	51.93
700.318	51.92
700.642	51.92
700.966	51.94
701.29	51.93
701.614	51.95
701.938	51.95
702.262	51.97
702.586	51.95
702.91	51.96
703.234	51.96
703.557	51.96
703.881	51.98
704.205	51.97
704.529	51.99
704.852	52.01
705.176	52.03
705.499	52.05
705.823	52.07
706.146	52.07
706.47	52.08
706.793	52.12
707.117	52.14
707.44	52.15
707.763	52.16
708.086	52.19
708.409	52.18
708.733	52.21
709.056	52.21
709.379	52.22
709.702	52.24
710.025	52.25
710.348	52.25
710.671	52.24
710.993	52.25
711.316	52.27
711.639	52.27
711.962	52.27
712.284	52.27
712.607	52.28
712.93	52.29
713.252	52.31
713.575	52.32
713.897	52.37
714.22	52.35
714.542	52.38
714.864	52.38
715.187	52.38
715.509	52.36
715.831	52.39
716.153	52.4
716.475	52.43
716.798	52.42
717.12	52.43
717.442	52.43
717.764	52.4
718.085	52.4
718.407	52.4
718.729	52.4
719.051	52.39
719.373	52.41
719.695	52.46
720.016	52.46
720.338	52.45
720.659	52.43
720.981	52.46
721.302	52.45
721.624	52.47
721.945	52.46
722.267	52.49
722.588	52.5
722.909	52.5
723.231	52.5
723.552	52.51
723.873	52.53
724.194	52.52
724.515	52.51
724.836	52.49
725.157	52.51
725.478	52.53
725.799	52.52
726.12	52.53
726.441	52.53
726.762	52.54
727.083	52.51
727.403	52.57
727.724	52.57
728.045	52.55
728.365	52.58
728.686	52.61
729.006	52.62
729.327	52.64
729.647	52.62
729.967	52.64
730.288	52.65
730.608	52.66
730.928	52.68
731.249	52.72
731.569	52.75
731.889	52.75
732.209	52.74
732.529	52.73
732.849	52.71
733.169	52.68
733.489	52.71
733.809	52.72
734.129	52.71
734.448	52.72
734.768	52.71
735.088	52.72
735.408	52.74
735.727	52.75
736.047	52.76
736.366	52.75
736.686	52.76
737.005	52.74
737.325	52.75
737.644	52.76
737.963	52.76
738.283	52.73
738.602	52.71
738.921	52.75
739.24	52.76
739.56	52.76
739.879	52.76
740.198	52.74
740.517	52.7
740.836	52.69
741.155	52.7
741.473	52.67
741.792	52.68
742.111	52.68
742.43	52.66
742.748	52.66
743.067	52.63
743.386	52.64
743.704	52.63
744.023	52.59
744.341	52.56
744.66	52.54
744.978	52.54
745.297	52.54
745.615	52.54
745.933	52.56
746.252	52.58
746.57	52.55
746.888	52.54
747.206	52.54
747.524	52.54
747.842	52.57
748.16	52.57
748.478	52.55
748.796	52.54
749.114	52.54
749.432	52.53
749.749	52.5
750.067	52.51
750.385	52.49
750.703	52.49
751.02	52.5
751.338	52.52
751.655	52.55
751.973	52.51
752.29	52.5
752.608	52.49
752.925	52.48
753.242	52.53
753.56	52.55
753.877	52.59
754.194	52.62
754.511	52.61
754.828	52.58
755.145	52.57
755.462	52.6
755.779	52.63
756.096	52.67
756.413	52.69
756.73	52.69
757.047	52.72
757.364	52.73
757.68	52.71
757.997	52.71
758.314	52.74
758.63	52.74
758.947	52.72
759.264	52.73
759.58	52.73
759.896	52.76
760.213	52.76
760.529	52.78
760.846	52.79
761.162	52.79
761.478	52.8
761.794	52.83
762.11	52.86
762.426	52.86
762.743	52.9
763.059	52.89
763.375	52.9
763.69	52.93
764.006	52.95
764.322	52.98
764.638	52.95
764.954	52.98
765.27	53.01
765.585	53.01
765.901	53.04
766.216	53.02
766.532	53.03
766.848	52.99
767.163	52.98
767.478	52.98
767.794	52.98
768.109	53.01
768.424	53.03
768.74	53
769.055	53.01
769.37	52.98
769.685	53
770	53
770.315	52.98
770.63	53
770.945	53.01
771.26	52.98
771.575	52.98
771.89	53.02
772.205	52.97
772.52	53
772.834	53.01
773.149	53.03
773.464	53
773.778	52.99
774.093	52.95
774.407	52.94
774.722	52.9
775.036	52.89
775.351	52.89
775.665	52.89
775.979	52.9
776.293	52.87
776.608	52.86
776.922	52.86
777.236	52.8
777.55	52.8
777.864	52.77
778.178	52.73
778.492	52.77
778.806	52.76
779.12	52.79
779.434	52.76
779.747	52.75
780.061	52.76
780.375	52.77
780.689	52.77
781.002	52.76
781.316	52.72
781.629	52.76
781.943	52.71
782.256	52.77
782.57	52.8
782.883	52.84
783.196	52.83
783.51	52.86
783.823	52.91
784.136	52.91
784.449	52.91
784.762	52.91
785.075	52.99
785.388	52.96
785.701	52.94
786.014	52.97
786.327	53
786.64	53.04
786.953	53.1
787.266	53.13
787.578	53.12
787.891	53.14
788.204	53.18
788.516	53.18
788.829	53.19
789.141	53.24
789.454	53.18
789.766	53.18
790.079	53.23
790.391	53.2
790.703	53.26
791.016	53.25
791.328	53.23
791.64	53.22
791.952	53.16
792.264	53.16
792.576	53.19
792.888	53.19
793.2	53.23
793.512	53.22
793.824	53.24
794.136	53.26
794.448	53.26
794.76	53.29
795.071	53.26
795.383	53.25
795.695	53.2
796.006	53.19
796.318	53.19
796.629	53.17
796.941	53.23
797.252	53.23
797.564	53.19
797.875	53.1
798.186	53.13
798.497	53.12
798.809	53.09
799.12	53.04
799.431	53.05
799.742	53.02
800.053	53
800.364	53.02
800.675	52.97
800.986	52.94
801.297	52.9
801.608	52.87
801.918	52.89
802.229	52.9
802.54	52.92
802.851	52.88
803.161	52.88
803.472	52.82
803.782	52.82
804.093	52.8
804.403	52.83
804.714	52.85
805.024	52.86
805.334	52.83
805.645	52.82
805.955	52.8
806.265	52.83
806.575	52.8
806.885	52.81
807.195	52.82
807.505	52.82
807.815	52.83
808.125	52.86
808.435	52.88
808.745	52.91
809.055	52.9
809.365	52.92
809.674	52.82
809.984	52.79
810.294	52.79
810.603	52.86
810.913	52.84
811.222	52.89
811.532	52.94
811.841	52.9
812.151	52.85
812.46	52.83
812.769	52.79
813.079	52.76
813.388	52.75
813.697	52.74
814.006	52.71
814.315	52.75
814.624	52.77
814.933	52.78
815.242	52.75
815.551	52.69
815.86	52.7
816.169	52.78
816.478	52.83
816.786	52.9
817.095	52.88
817.404	52.89
817.712	52.91
818.021	52.9
818.33	52.92
818.638	52.9
818.947	52.88
819.255	52.85
819.563	52.87
819.872	52.88
820.18	52.91
820.488	52.91
820.796	52.88
821.105	52.87
821.413	52.89
821.721	52.86
822.029	52.86
822.337	52.88
822.645	52.89
822.953	52.9
823.26	52.89
823.568	52.9
823.876	52.91
824.184	52.92
824.491	52.93
824.799	52.95
825.107	52.96
825.414	52.98
825.722	52.97
826.029	53
826.337	53.01
826.644	53.02
826.951	53
827.259	52.99
827.566	52.99
827.873	53
828.18	53.02
828.488	53.04
828.795	53.02
829.102	52.97
829.409	52.96
829.716	52.96
830.023	53.08
830.329	53.24
830.636	53.27
830.943	53.27
831.25	53.31
831.557	53.38
831.863	53.41
832.17	53.39
832.476	53.38
832.783	53.35
833.089	53.36
833.396	53.38
833.702	53.41
834.009	53.44
834.315	53.46
834.621	53.47
834.928	53.5
835.234	53.49
835.54	53.52
835.846	53.53
836.152	53.49
836.458	53.46
836.764	53.44
837.07	53.48
837.376	53.47
837.682	53.45
837.988	53.46
838.293	53.48
838.599	53.44
838.905	53.44
839.211	53.46
839.516	53.48
839.822	53.49
840.127	53.55
840.433	53.59
840.738	53.71
841.044	53.75
841.349	53.8
841.654	53.94
841.959	53.97
842.265	54.01
842.57	53.65
842.875	53.09
843.18	53.05
843.485	53.06
843.79	53.04
844.095	52.92
844.4	52.95
844.705	53.05
845.01	52.97
845.315	53
845.619	52.97
845.924	52.9
846.229	52.92
846.533	52.88
846.838	53.06
847.142	53.03
847.447	53.1
847.751	53.26
848.056	53.29
848.36	53.42
848.664	53.53
848.969	53.49
849.273	53.57
849.577	53.46
849.881	53.48
850.185	53.55
850.489	53.53
850.794	53.55
851.097	53.66
851.401	53.69
851.705	53.75
852.009	53.9
852.313	53.83
852.617	53.81
852.92	53.7
853.224	53.53
853.528	53.49
853.831	53.49
854.135	53.44
854.438	53.31
854.742	53.38
855.045	53.36
855.349	53.55
855.652	53.7
855.955	53.74
856.259	53.77
856.562	53.75
856.865	53.75
857.168	53.72
857.471	53.86
857.774	53.91
858.077	53.95
858.38	54.12
858.683	54.1
858.986	54.02
859.289	54.09
859.592	54.09
859.894	53.99
860.197	53.92
860.5	53.97
860.802	53.84
861.105	53.82
861.407	53.77
861.71	53.57
862.012	53.57
862.315	53.58
862.617	53.57
862.919	53.76
863.222	53.79
863.524	53.66
863.826	53.73
864.128	53.66
864.43	53.55
864.732	53.61
865.034	53.58
865.336	53.67
865.638	53.49
865.94	53.53
866.242	53.31
866.544	53.33
866.846	53.54
867.147	53.48
867.449	53.56
867.751	53.39
868.052	53.3
868.354	53.35
868.655	53.28
868.957	53.53
869.258	53.62
869.56	53.46
869.861	53.53
870.162	53.53
870.463	53.67
870.765	53.63
871.066	53.54
871.367	53.65
871.668	53.35
871.969	53.41
872.27	53.24
872.571	53.19
872.872	53.13
873.173	53.18
873.473	53.2
873.774	53.35
874.075	53.41
874.376	53.51
874.676	53.47
874.977	53.46
875.277	53.2
875.578	53.24
875.878	53.26
876.179	53.14
876.479	53.27
876.78	53.28
877.08	53.25
877.38	53.17
877.68	53.06
877.981	53.17
878.281	53.18
878.581	53.48
