Data from UWBM48344_Reflection_00002.txt Node
Date: Sun May 02 14:00:07 EDT 2021
User: vgr7
Spectrometer: USB2G7710
Scans to average: 10
Trigger mode: 4
Integration Time (sec): 1.000000E-1
Electric dark correction enabled: true
Boxcar width: 20
XAxis mode: Wavelengths
Number of Pixels in Spectrum: 2048
>>>>>Begin Spectral Data<<<<<
177.721	522.22
178.105	1588.89
178.488	559.26
178.871	488.89
179.254	296.4
179.636	159.6
180.019	123.96
180.402	107.3
180.785	95.77
181.168	86.59
181.55	71.03
181.933	67.41
182.316	59.18
182.698	54.8
183.081	49.58
183.463	45.17
183.846	39.43
184.228	38.89
184.611	37.23
184.993	34.92
185.376	34.68
185.758	34.73
186.14	39.29
186.522	37.11
186.904	34.33
187.287	36.66
187.669	32.68
188.051	31.39
188.433	29.27
188.815	26.82
189.197	27.92
189.579	28.51
189.961	28.2
190.342	28.88
190.724	29.25
191.106	28.08
191.488	28.05
191.869	26.4
192.251	23.63
192.633	22.56
193.014	21.11
193.396	16.5
193.777	17.11
194.159	16.24
194.54	11.8
194.922	10.43
195.303	10.78
195.684	10.1
196.065	12.19
196.447	12.77
196.828	11.71
197.209	11.77
197.59	10
197.971	10.36
198.352	10.69
198.733	11.95
199.114	12.07
199.495	12.2
199.876	11.18
200.257	13.02
200.638	12.18
201.018	12.06
201.399	13.73
201.78	12.99
202.16	12.89
202.541	15.06
202.922	15.11
203.302	16.1
203.683	16.61
204.063	17.41
204.444	17.93
204.824	17.6
205.204	14.24
205.585	13.83
205.965	14.05
206.345	14.33
206.725	14.42
207.106	13.58
207.486	13.54
207.866	13.99
208.246	13.42
208.626	13.13
209.006	14.02
209.386	12.3
209.766	12.37
210.145	12.02
210.525	11.58
210.905	12.66
211.285	11.71
211.664	10.44
212.044	8.84
212.424	7.9
212.803	7.58
213.183	7.48
213.562	9.05
213.942	8.94
214.321	7.11
214.701	6.57
215.08	7.59
215.459	8.07
215.838	5.92
216.218	5.69
216.597	4.06
216.976	3.27
217.355	2.93
217.734	3.31
218.113	2.05
218.492	1.34
218.871	1.13
219.25	1.11
219.629	1.58
220.008	1.65
220.387	0.38
220.766	2.98
221.144	1.56
221.523	1.74
221.902	1.99
222.28	1.91
222.659	2.2
223.037	2.31
223.416	3.17
223.794	4.04
224.173	4.15
224.551	4.43
224.929	5.81
225.308	5.62
225.686	6.33
226.064	6.27
226.442	5.99
226.821	6.01
227.199	6.14
227.577	5.99
227.955	6.58
228.333	6.93
228.711	6.77
229.089	6.04
229.467	5.67
229.845	5.75
230.222	5.99
230.6	5.66
230.978	5.51
231.356	5.79
231.733	6.29
232.111	6.48
232.488	6.34
232.866	6.11
233.243	5.74
233.621	5.59
233.998	5.78
234.376	5.86
234.753	5.5
235.13	5.4
235.508	5.49
235.885	5.43
236.262	5.26
236.639	5.41
237.016	5.37
237.393	5.34
237.77	5.35
238.147	5.3
238.524	5.35
238.901	5.29
239.278	5.29
239.655	5.35
240.032	5.26
240.409	5.2
240.785	5.24
241.162	5.19
241.539	5.17
241.915	5.21
242.292	5.24
242.668	5.23
243.045	5.23
243.421	5.18
243.798	5.16
244.174	5.2
244.551	5.21
244.927	5.26
245.303	5.27
245.679	5.25
246.056	5.25
246.432	5.27
246.808	5.23
247.184	5.21
247.56	5.2
247.936	5.19
248.312	5.19
248.688	5.21
249.064	5.2
249.44	5.15
249.815	5.09
250.191	5.07
250.567	5.1
250.943	5.06
251.318	5.04
251.694	5.07
252.069	5.02
252.445	5.01
252.82	4.97
253.196	4.92
253.571	4.88
253.947	4.86
254.322	4.83
254.697	4.8
255.073	4.76
255.448	4.78
255.823	4.76
256.198	4.75
256.573	4.75
256.948	4.73
257.323	4.7
257.698	4.65
258.073	4.62
258.448	4.61
258.823	4.59
259.198	4.59
259.573	4.56
259.948	4.55
260.322	4.5
260.697	4.49
261.072	4.48
261.446	4.48
261.821	4.46
262.195	4.46
262.57	4.44
262.944	4.42
263.319	4.44
263.693	4.43
264.067	4.43
264.442	4.42
264.816	4.42
265.19	4.45
265.564	4.48
265.938	4.46
266.313	4.47
266.687	4.46
267.061	4.45
267.435	4.46
267.809	4.45
268.183	4.45
268.556	4.46
268.93	4.47
269.304	4.48
269.678	4.49
270.051	4.48
270.425	4.46
270.799	4.45
271.172	4.45
271.546	4.44
271.919	4.44
272.293	4.44
272.666	4.44
273.04	4.47
273.413	4.49
273.787	4.49
274.16	4.49
274.533	4.49
274.906	4.5
275.279	4.5
275.653	4.5
276.026	4.51
276.399	4.52
276.772	4.51
277.145	4.49
277.518	4.49
277.891	4.5
278.263	4.49
278.636	4.49
279.009	4.48
279.382	4.48
279.755	4.49
280.127	4.5
280.5	4.49
280.872	4.49
281.245	4.49
281.617	4.49
281.99	4.51
282.362	4.5
282.735	4.5
283.107	4.5
283.479	4.5
283.852	4.5
284.224	4.51
284.596	4.49
284.968	4.48
285.34	4.49
285.713	4.49
286.085	4.5
286.457	4.49
286.829	4.49
287.201	4.49
287.572	4.5
287.944	4.49
288.316	4.49
288.688	4.47
289.06	4.46
289.431	4.48
289.803	4.49
290.175	4.48
290.546	4.5
290.918	4.52
291.289	4.51
291.661	4.51
292.032	4.51
292.403	4.51
292.775	4.51
293.146	4.51
293.517	4.53
293.889	4.52
294.26	4.54
294.631	4.55
295.002	4.56
295.373	4.56
295.744	4.56
296.115	4.56
296.486	4.58
296.857	4.58
297.228	4.58
297.599	4.6
297.97	4.6
298.34	4.61
298.711	4.61
299.082	4.61
299.452	4.61
299.823	4.63
300.194	4.65
300.564	4.65
300.935	4.65
301.305	4.66
301.676	4.68
302.046	4.68
302.416	4.67
302.787	4.66
303.157	4.65
303.527	4.65
303.897	4.65
304.267	4.66
304.637	4.64
305.008	4.63
305.378	4.64
305.748	4.63
306.117	4.62
306.487	4.64
306.857	4.66
307.227	4.67
307.597	4.68
307.967	4.69
308.336	4.69
308.706	4.67
309.076	4.67
309.445	4.67
309.815	4.66
310.184	4.64
310.554	4.63
310.923	4.63
311.293	4.61
311.662	4.6
312.031	4.59
312.401	4.6
312.77	4.59
313.139	4.59
313.508	4.6
313.877	4.6
314.246	4.6
314.616	4.59
314.985	4.58
315.353	4.58
315.722	4.56
316.091	4.57
316.46	4.55
316.829	4.56
317.198	4.56
317.567	4.55
317.935	4.54
318.304	4.54
318.672	4.54
319.041	4.55
319.41	4.53
319.778	4.54
320.147	4.53
320.515	4.52
320.883	4.5
321.252	4.48
321.62	4.48
321.988	4.45
322.357	4.44
322.725	4.44
323.093	4.43
323.461	4.42
323.829	4.43
324.197	4.44
324.565	4.42
324.933	4.42
325.301	4.43
325.669	4.44
326.037	4.42
326.405	4.43
326.772	4.42
327.14	4.41
327.508	4.39
327.875	4.39
328.243	4.38
328.61	4.36
328.978	4.35
329.346	4.34
329.713	4.36
330.08	4.38
330.448	4.36
330.815	4.35
331.182	4.34
331.55	4.33
331.917	4.3
332.284	4.28
332.651	4.29
333.018	4.3
333.385	4.31
333.752	4.32
334.119	4.32
334.486	4.33
334.853	4.32
335.22	4.33
335.587	4.32
335.954	4.34
336.32	4.34
336.687	4.33
337.054	4.33
337.42	4.34
337.787	4.35
338.153	4.35
338.52	4.34
338.886	4.32
339.253	4.32
339.619	4.33
339.986	4.32
340.352	4.32
340.718	4.31
341.084	4.31
341.451	4.31
341.817	4.31
342.183	4.32
342.549	4.34
342.915	4.32
343.281	4.32
343.647	4.32
344.013	4.32
344.379	4.32
344.745	4.32
345.11	4.3
345.476	4.31
345.842	4.31
346.208	4.32
346.573	4.33
346.939	4.33
347.304	4.34
347.67	4.34
348.035	4.35
348.401	4.34
348.766	4.34
349.132	4.33
349.497	4.33
349.862	4.33
350.228	4.33
350.593	4.33
350.958	4.33
351.323	4.33
351.688	4.35
352.053	4.35
352.418	4.35
352.783	4.34
353.148	4.34
353.513	4.35
353.878	4.35
354.243	4.35
354.608	4.35
354.972	4.36
355.337	4.36
355.702	4.37
356.066	4.37
356.431	4.37
356.795	4.37
357.16	4.36
357.524	4.36
357.889	4.37
358.253	4.37
358.618	4.37
358.982	4.37
359.346	4.38
359.71	4.37
360.075	4.38
360.439	4.38
360.803	4.38
361.167	4.38
361.531	4.37
361.895	4.37
362.259	4.37
362.623	4.36
362.987	4.36
363.351	4.36
363.714	4.36
364.078	4.36
364.442	4.36
364.806	4.36
365.169	4.35
365.533	4.36
365.896	4.35
366.26	4.35
366.623	4.35
366.987	4.35
367.35	4.35
367.714	4.35
368.077	4.36
368.44	4.36
368.803	4.36
369.167	4.36
369.53	4.36
369.893	4.35
370.256	4.35
370.619	4.35
370.982	4.35
371.345	4.35
371.708	4.36
372.071	4.36
372.434	4.36
372.797	4.36
373.159	4.37
373.522	4.37
373.885	4.37
374.247	4.37
374.61	4.37
374.973	4.36
375.335	4.36
375.698	4.36
376.06	4.36
376.423	4.36
376.785	4.36
377.147	4.37
377.51	4.37
377.872	4.37
378.234	4.36
378.596	4.36
378.958	4.36
379.321	4.36
379.683	4.37
380.045	4.37
380.407	4.37
380.769	4.37
381.13	4.36
381.492	4.36
381.854	4.36
382.216	4.36
382.578	4.35
382.939	4.35
383.301	4.35
383.663	4.34
384.024	4.34
384.386	4.34
384.747	4.34
385.109	4.33
385.47	4.33
385.832	4.32
386.193	4.32
386.554	4.32
386.916	4.31
387.277	4.31
387.638	4.31
387.999	4.31
388.36	4.31
388.721	4.3
389.082	4.3
389.443	4.3
389.804	4.3
390.165	4.3
390.526	4.31
390.887	4.3
391.248	4.3
391.609	4.3
391.969	4.3
392.33	4.31
392.691	4.31
393.051	4.31
393.412	4.32
393.772	4.32
394.133	4.31
394.493	4.31
394.854	4.31
395.214	4.31
395.574	4.31
395.935	4.31
396.295	4.31
396.655	4.31
397.015	4.31
397.376	4.32
397.736	4.32
398.096	4.32
398.456	4.32
398.816	4.33
399.176	4.33
399.535	4.33
399.895	4.33
400.255	4.33
400.615	4.33
400.975	4.34
401.334	4.33
401.694	4.34
402.054	4.34
402.413	4.34
402.773	4.34
403.132	4.34
403.492	4.35
403.851	4.35
404.211	4.35
404.57	4.35
404.929	4.35
405.288	4.36
405.648	4.36
406.007	4.36
406.366	4.36
406.725	4.36
407.084	4.36
407.443	4.36
407.802	4.36
408.161	4.36
408.52	4.36
408.879	4.37
409.238	4.37
409.596	4.37
409.955	4.38
410.314	4.38
410.673	4.39
411.031	4.39
411.39	4.4
411.748	4.41
412.107	4.42
412.465	4.43
412.824	4.46
413.182	4.49
413.54	4.52
413.899	4.55
414.257	4.59
414.615	4.63
414.974	4.67
415.332	4.72
415.69	4.76
416.048	4.8
416.406	4.85
416.764	4.88
417.122	4.92
417.48	4.96
417.838	4.99
418.195	5.02
418.553	5.05
418.911	5.07
419.269	5.08
419.626	5.08
419.984	5.07
420.342	5.06
420.699	5.04
421.057	5.03
421.414	5
421.772	4.99
422.129	4.99
422.486	4.98
422.844	4.98
423.201	4.98
423.558	4.98
423.915	4.99
424.273	4.99
424.63	4.99
424.987	4.99
425.344	4.99
425.701	4.99
426.058	4.99
426.415	4.99
426.772	4.99
427.128	4.99
427.485	4.97
427.842	4.96
428.199	4.94
428.555	4.92
428.912	4.9
429.269	4.87
429.625	4.85
429.982	4.82
430.338	4.78
430.695	4.76
431.051	4.72
431.407	4.7
431.764	4.68
432.12	4.65
432.476	4.64
432.832	4.63
433.189	4.64
433.545	4.64
433.901	4.66
434.257	4.68
434.613	4.71
434.969	4.74
435.325	4.77
435.681	4.81
436.036	4.84
436.392	4.86
436.748	4.88
437.104	4.89
437.459	4.91
437.815	4.94
438.171	4.96
438.526	4.99
438.882	5.02
439.237	5.07
439.593	5.11
439.948	5.14
440.304	5.19
440.659	5.21
441.014	5.24
441.369	5.27
441.725	5.29
442.08	5.31
442.435	5.33
442.79	5.34
443.145	5.34
443.5	5.35
443.855	5.35
444.21	5.35
444.565	5.34
444.92	5.34
445.275	5.33
445.629	5.32
445.984	5.31
446.339	5.3
446.693	5.29
447.048	5.27
447.403	5.25
447.757	5.23
448.112	5.2
448.466	5.18
448.82	5.15
449.175	5.13
449.529	5.11
449.883	5.09
450.238	5.06
450.592	5.05
450.946	5.04
451.3	5.04
451.654	5.05
452.008	5.05
452.362	5.06
452.716	5.06
453.07	5.06
453.424	5.05
453.778	5.04
454.132	5.04
454.486	5.02
454.839	5
455.193	4.98
455.547	4.97
455.9	4.93
456.254	4.92
456.607	4.88
456.961	4.85
457.314	4.83
457.668	4.82
458.021	4.81
458.375	4.81
458.728	4.81
459.081	4.81
459.434	4.82
459.787	4.83
460.141	4.84
460.494	4.85
460.847	4.85
461.2	4.86
461.553	4.87
461.906	4.87
462.259	4.87
462.611	4.88
462.964	4.88
463.317	4.89
463.67	4.89
464.022	4.9
464.375	4.91
464.728	4.91
465.08	4.91
465.433	4.92
465.785	4.91
466.138	4.89
466.49	4.87
466.843	4.85
467.195	4.82
467.547	4.8
467.899	4.77
468.252	4.74
468.604	4.71
468.956	4.69
469.308	4.67
469.66	4.67
470.012	4.66
470.364	4.66
470.716	4.66
471.068	4.68
471.42	4.71
471.772	4.73
472.123	4.74
472.475	4.75
472.827	4.77
473.178	4.78
473.53	4.79
473.882	4.8
474.233	4.83
474.585	4.87
474.936	4.94
475.288	5.04
475.639	5.17
475.99	5.33
476.342	5.5
476.693	5.69
477.044	5.88
477.395	6.08
477.746	6.28
478.097	6.48
478.448	6.69
478.8	6.89
479.15	7.08
479.501	7.25
479.852	7.41
480.203	7.56
480.554	7.7
480.905	7.84
481.255	7.97
481.606	8.1
481.957	8.21
482.307	8.32
482.658	8.42
483.009	8.53
483.359	8.63
483.709	8.72
484.06	8.81
484.41	8.9
484.761	8.99
485.111	9.07
485.461	9.15
485.811	9.23
486.162	9.29
486.512	9.35
486.862	9.4
487.212	9.43
487.562	9.45
487.912	9.46
488.262	9.47
488.612	9.46
488.961	9.44
489.311	9.39
489.661	9.31
490.011	9.21
490.36	9.09
490.71	8.94
491.06	8.79
491.409	8.62
491.759	8.45
492.108	8.27
492.458	8.08
492.807	7.89
493.157	7.69
493.506	7.51
493.855	7.34
494.204	7.17
494.554	7.01
494.903	6.86
495.252	6.72
495.601	6.59
495.95	6.45
496.299	6.33
496.648	6.21
496.997	6.11
497.346	6
497.695	5.9
498.043	5.8
498.392	5.7
498.741	5.61
499.09	5.52
499.438	5.43
499.787	5.35
500.135	5.27
500.484	5.2
500.832	5.14
501.181	5.09
501.529	5.07
501.878	5.05
502.226	5.04
502.574	5.03
502.923	5.02
503.271	5.02
503.619	5.02
503.967	5.02
504.315	5.01
504.663	5
505.011	5
505.359	4.99
505.707	4.99
506.055	4.99
506.403	4.98
506.751	4.98
507.098	4.98
507.446	4.99
507.794	4.99
508.141	5
508.489	5.02
508.837	5.04
509.184	5.05
509.531	5.06
509.879	5.08
510.226	5.09
510.574	5.11
510.921	5.13
511.268	5.15
511.616	5.18
511.963	5.2
512.31	5.22
512.657	5.25
513.004	5.27
513.351	5.29
513.698	5.3
514.045	5.31
514.392	5.32
514.739	5.32
515.086	5.31
515.432	5.31
515.779	5.3
516.126	5.3
516.473	5.3
516.819	5.3
517.166	5.31
517.512	5.32
517.859	5.33
518.205	5.35
518.552	5.38
518.898	5.41
519.245	5.46
519.591	5.52
519.937	5.61
520.283	5.71
520.629	5.83
520.976	5.96
521.322	6.1
521.668	6.24
522.014	6.39
522.36	6.53
522.706	6.67
523.052	6.8
523.398	6.93
523.743	7.04
524.089	7.13
524.435	7.21
524.781	7.29
525.126	7.35
525.472	7.42
525.817	7.48
526.163	7.54
526.509	7.58
526.854	7.64
527.199	7.69
527.545	7.74
527.89	7.8
528.235	7.85
528.581	7.9
528.926	7.96
529.271	8
529.616	8.04
529.961	8.08
530.306	8.12
530.651	8.15
530.996	8.17
531.341	8.18
531.686	8.19
532.031	8.19
532.376	8.2
532.721	8.2
533.065	8.21
533.41	8.22
533.755	8.21
534.099	8.19
534.444	8.16
534.788	8.12
535.133	8.07
535.477	8.02
535.822	7.96
536.166	7.89
536.51	7.81
536.855	7.72
537.199	7.62
537.543	7.53
537.887	7.45
538.231	7.38
538.576	7.32
538.92	7.25
539.264	7.18
539.608	7.11
539.951	7.04
540.295	6.97
540.639	6.9
540.983	6.83
541.327	6.75
541.671	6.67
542.014	6.6
542.358	6.53
542.701	6.48
543.045	6.44
543.389	6.41
543.732	6.39
544.075	6.36
544.419	6.34
544.762	6.32
545.105	6.31
545.449	6.3
545.792	6.29
546.135	6.28
546.478	6.26
546.821	6.23
547.165	6.2
547.508	6.15
547.851	6.1
548.194	6.03
548.536	5.96
548.879	5.89
549.222	5.8
549.565	5.72
549.908	5.64
550.25	5.56
550.593	5.49
550.936	5.44
551.278	5.39
551.621	5.35
551.963	5.32
552.306	5.29
552.648	5.27
552.991	5.25
553.333	5.23
553.675	5.22
554.017	5.22
554.36	5.21
554.702	5.22
555.044	5.23
555.386	5.24
555.728	5.27
556.07	5.28
556.412	5.3
556.754	5.31
557.096	5.31
557.438	5.31
557.78	5.32
558.121	5.32
558.463	5.33
558.805	5.33
559.147	5.33
559.488	5.33
559.83	5.33
560.171	5.33
560.513	5.34
560.854	5.34
561.196	5.34
561.537	5.35
561.878	5.35
562.22	5.35
562.561	5.35
562.902	5.35
563.243	5.35
563.584	5.36
563.925	5.36
564.266	5.36
564.607	5.36
564.948	5.37
565.289	5.37
565.63	5.37
565.971	5.38
566.312	5.39
566.653	5.39
566.993	5.39
567.334	5.4
567.675	5.4
568.015	5.41
568.356	5.41
568.696	5.41
569.037	5.42
569.377	5.41
569.718	5.42
570.058	5.42
570.398	5.42
570.739	5.42
571.079	5.43
571.419	5.43
571.759	5.43
572.099	5.43
572.439	5.43
572.779	5.43
573.119	5.43
573.459	5.43
573.799	5.43
574.139	5.43
574.479	5.43
574.819	5.43
575.158	5.44
575.498	5.44
575.838	5.43
576.177	5.43
576.517	5.43
576.856	5.43
577.196	5.43
577.535	5.43
577.875	5.43
578.214	5.43
578.553	5.43
578.893	5.42
579.232	5.42
579.571	5.42
579.91	5.42
580.25	5.42
580.589	5.42
580.928	5.41
581.267	5.41
581.606	5.41
581.945	5.41
582.283	5.41
582.622	5.42
582.961	5.41
583.3	5.42
583.639	5.42
583.977	5.42
584.316	5.42
584.654	5.42
584.993	5.42
585.332	5.42
585.67	5.42
586.008	5.43
586.347	5.43
586.685	5.43
587.024	5.43
587.362	5.44
587.7	5.44
588.038	5.44
588.376	5.44
588.715	5.44
589.053	5.44
589.391	5.44
589.729	5.45
590.067	5.45
590.404	5.46
590.742	5.46
591.08	5.47
591.418	5.47
591.756	5.47
592.093	5.48
592.431	5.48
592.769	5.49
593.106	5.5
593.444	5.5
593.781	5.5
594.119	5.5
594.456	5.49
594.793	5.5
595.131	5.5
595.468	5.5
595.805	5.5
596.143	5.5
596.48	5.5
596.817	5.5
597.154	5.5
597.491	5.51
597.828	5.51
598.165	5.51
598.502	5.52
598.839	5.52
599.176	5.52
599.512	5.52
599.849	5.53
600.186	5.53
600.523	5.53
600.859	5.53
601.196	5.53
601.532	5.53
601.869	5.54
602.205	5.54
602.542	5.54
602.878	5.55
603.215	5.55
603.551	5.55
603.887	5.55
604.223	5.55
604.56	5.56
604.896	5.56
605.232	5.56
605.568	5.57
605.904	5.57
606.24	5.57
606.576	5.57
606.912	5.57
607.248	5.57
607.583	5.57
607.919	5.57
608.255	5.58
608.591	5.58
608.926	5.58
609.262	5.58
609.597	5.58
609.933	5.59
610.268	5.59
610.604	5.59
610.939	5.59
611.275	5.58
611.61	5.58
611.945	5.58
612.281	5.58
612.616	5.59
612.951	5.59
613.286	5.59
613.621	5.59
613.956	5.58
614.291	5.59
614.626	5.59
614.961	5.59
615.296	5.6
615.631	5.6
615.966	5.6
616.3	5.6
616.635	5.6
616.97	5.6
617.304	5.61
617.639	5.61
617.973	5.6
618.308	5.6
618.642	5.61
618.977	5.6
619.311	5.6
619.646	5.61
619.98	5.61
620.314	5.61
620.648	5.61
620.983	5.62
621.317	5.62
621.651	5.63
621.985	5.63
622.319	5.64
622.653	5.64
622.987	5.64
623.321	5.65
623.655	5.65
623.988	5.66
624.322	5.67
624.656	5.67
624.99	5.68
625.323	5.69
625.657	5.69
625.99	5.69
626.324	5.68
626.657	5.68
626.991	5.69
627.324	5.69
627.658	5.69
627.991	5.69
628.324	5.69
628.657	5.69
628.991	5.7
629.324	5.7
629.657	5.7
629.99	5.71
630.323	5.71
630.656	5.71
630.989	5.72
631.322	5.72
631.655	5.72
631.987	5.73
632.32	5.73
632.653	5.73
632.986	5.74
633.318	5.74
633.651	5.75
633.984	5.75
634.316	5.76
634.649	5.76
634.981	5.76
635.313	5.76
635.646	5.77
635.978	5.77
636.31	5.77
636.643	5.78
636.975	5.78
637.307	5.78
637.639	5.77
637.971	5.78
638.303	5.78
638.635	5.78
638.967	5.78
639.299	5.79
639.631	5.79
639.963	5.8
640.295	5.81
640.626	5.81
640.958	5.83
641.29	5.83
641.621	5.84
641.953	5.84
642.285	5.85
642.616	5.85
642.948	5.85
643.279	5.86
643.61	5.87
643.942	5.87
644.273	5.88
644.604	5.89
644.936	5.89
645.267	5.89
645.598	5.89
645.929	5.9
646.26	5.9
646.591	5.91
646.922	5.91
647.253	5.91
647.584	5.92
647.915	5.93
648.245	5.93
648.576	5.93
648.907	5.94
649.238	5.94
649.568	5.94
649.899	5.94
650.229	5.95
650.56	5.95
650.89	5.96
651.221	5.96
651.551	5.96
651.882	5.96
652.212	5.97
652.542	5.98
652.872	5.97
653.203	5.98
653.533	5.99
653.863	5.98
654.193	5.99
654.523	5.99
654.853	5.99
655.183	5.98
655.513	5.99
655.843	5.99
656.172	5.98
656.502	5.99
656.832	5.99
657.162	5.99
657.491	5.99
657.821	5.99
658.15	6
658.48	6
658.809	6.01
659.139	6.01
659.468	5.99
659.798	6
660.127	6.01
660.456	6.01
660.785	6.01
661.115	6.01
661.444	6.01
661.773	6.02
662.102	6.02
662.431	6.02
662.76	6.03
663.089	6.03
663.418	6.04
663.747	6.04
664.076	6.05
664.404	6.05
664.733	6.06
665.062	6.08
665.39	6.08
665.719	6.08
666.048	6.09
666.376	6.09
666.705	6.1
667.033	6.1
667.362	6.11
667.69	6.11
668.018	6.12
668.347	6.13
668.675	6.13
669.003	6.14
669.331	6.15
669.659	6.15
669.987	6.15
670.315	6.16
670.643	6.17
670.971	6.17
671.299	6.17
671.627	6.17
671.955	6.17
672.283	6.19
672.61	6.19
672.938	6.2
673.266	6.21
673.593	6.2
673.921	6.2
674.249	6.21
674.576	6.22
674.904	6.22
675.231	6.22
675.558	6.21
675.886	6.23
676.213	6.23
676.54	6.24
676.867	6.23
677.195	6.23
677.522	6.23
677.849	6.23
678.176	6.23
678.503	6.23
678.83	6.23
679.157	6.24
679.484	6.24
679.81	6.24
680.137	6.25
680.464	6.25
680.791	6.26
681.117	6.28
681.444	6.28
681.771	6.28
682.097	6.29
682.424	6.29
682.75	6.3
683.077	6.31
683.403	6.31
683.729	6.31
684.056	6.3
684.382	6.31
684.708	6.31
685.034	6.33
685.36	6.34
685.686	6.33
686.012	6.33
686.339	6.33
686.664	6.33
686.99	6.34
687.316	6.36
687.642	6.37
687.968	6.38
688.294	6.38
688.619	6.39
688.945	6.4
689.271	6.4
689.596	6.4
689.922	6.41
690.247	6.42
690.573	6.42
690.898	6.43
691.224	6.43
691.549	6.45
691.874	6.45
692.2	6.46
692.525	6.47
692.85	6.48
693.175	6.5
693.5	6.5
693.825	6.5
694.15	6.5
694.475	6.49
694.8	6.5
695.125	6.51
695.45	6.52
695.775	6.53
696.099	6.53
696.424	6.52
696.749	6.53
697.073	6.54
697.398	6.55
697.723	6.56
698.047	6.57
698.372	6.57
698.696	6.58
699.02	6.57
699.345	6.59
699.669	6.6
699.993	6.61
700.318	6.61
700.642	6.62
700.966	6.61
701.29	6.61
701.614	6.61
701.938	6.63
702.262	6.64
702.586	6.64
702.91	6.65
703.234	6.64
703.557	6.65
703.881	6.65
704.205	6.65
704.529	6.66
704.852	6.68
705.176	6.68
705.499	6.68
705.823	6.69
706.146	6.68
706.47	6.68
706.793	6.69
707.117	6.7
707.44	6.71
707.763	6.72
708.086	6.73
708.409	6.73
708.733	6.73
709.056	6.73
709.379	6.74
709.702	6.75
710.025	6.77
710.348	6.76
710.671	6.77
710.993	6.77
711.316	6.78
711.639	6.79
711.962	6.8
712.284	6.83
712.607	6.83
712.93	6.83
713.252	6.83
713.575	6.83
713.897	6.83
714.22	6.84
714.542	6.85
714.864	6.84
715.187	6.84
715.509	6.83
715.831	6.83
716.153	6.83
716.475	6.85
716.798	6.85
717.12	6.86
717.442	6.88
717.764	6.89
718.085	6.88
718.407	6.89
718.729	6.9
719.051	6.91
719.373	6.93
719.695	6.92
720.016	6.94
720.338	6.95
720.659	6.95
720.981	6.96
721.302	6.95
721.624	6.96
721.945	6.97
722.267	7
722.588	7.01
722.909	7
723.231	7
723.552	7.01
723.873	7.02
724.194	7.04
724.515	7.04
724.836	7.03
725.157	7.04
725.478	7.03
725.799	7.04
726.12	7.06
726.441	7.07
726.762	7.09
727.083	7.11
727.403	7.11
727.724	7.12
728.045	7.15
728.365	7.16
728.686	7.18
729.006	7.21
729.327	7.23
729.647	7.23
729.967	7.26
730.288	7.28
730.608	7.27
730.928	7.28
731.249	7.3
731.569	7.3
731.889	7.3
732.209	7.3
732.529	7.3
732.849	7.31
733.169	7.32
733.489	7.34
733.809	7.35
734.129	7.37
734.448	7.4
734.768	7.42
735.088	7.44
735.408	7.45
735.727	7.45
736.047	7.48
736.366	7.49
736.686	7.5
737.005	7.5
737.325	7.5
737.644	7.5
737.963	7.5
738.283	7.49
738.602	7.5
738.921	7.51
739.24	7.54
739.56	7.55
739.879	7.55
740.198	7.57
740.517	7.59
740.836	7.57
741.155	7.58
741.473	7.58
741.792	7.58
742.111	7.56
742.43	7.54
742.748	7.56
743.067	7.57
743.386	7.58
743.704	7.61
744.023	7.6
744.341	7.59
744.66	7.6
744.978	7.62
745.297	7.63
745.615	7.65
745.933	7.67
746.252	7.67
746.57	7.68
746.888	7.69
747.206	7.66
747.524	7.66
747.842	7.64
748.16	7.64
748.478	7.62
748.796	7.62
749.114	7.61
749.432	7.61
749.749	7.64
750.067	7.65
750.385	7.67
750.703	7.67
751.02	7.69
751.338	7.72
751.655	7.75
751.973	7.76
752.29	7.76
752.608	7.77
752.925	7.77
753.242	7.8
753.56	7.79
753.877	7.85
754.194	7.85
754.511	7.86
754.828	7.86
755.145	7.91
755.462	7.94
755.779	7.97
756.096	7.97
756.413	7.98
756.73	7.97
757.047	7.98
757.364	7.99
757.68	8
757.997	8
758.314	8.01
758.63	8.04
758.947	8.03
759.264	8.03
759.58	8.01
759.896	8.02
760.213	8.03
760.529	8.05
760.846	8.06
761.162	8.07
761.478	8.11
761.794	8.14
762.11	8.15
762.426	8.17
762.743	8.16
763.059	8.14
763.375	8.14
763.69	8.16
764.006	8.18
764.322	8.2
764.638	8.19
764.954	8.19
765.27	8.2
765.585	8.2
765.901	8.22
766.216	8.21
766.532	8.21
766.848	8.2
767.163	8.2
767.478	8.21
767.794	8.22
768.109	8.2
768.424	8.21
768.74	8.2
769.055	8.19
769.37	8.19
769.685	8.21
770	8.25
770.315	8.26
770.63	8.29
770.945	8.31
771.26	8.3
771.575	8.3
771.89	8.35
772.205	8.37
772.52	8.42
772.834	8.44
773.149	8.5
773.464	8.51
773.778	8.5
774.093	8.5
774.407	8.49
774.722	8.49
775.036	8.48
775.351	8.51
775.665	8.53
775.979	8.57
776.293	8.6
776.608	8.63
776.922	8.62
777.236	8.61
777.55	8.64
777.864	8.67
778.178	8.66
778.492	8.69
778.806	8.7
779.12	8.69
779.434	8.73
779.747	8.74
780.061	8.78
780.375	8.78
780.689	8.79
781.002	8.81
781.316	8.81
781.629	8.81
781.943	8.84
782.256	8.86
782.57	8.86
782.883	8.85
783.196	8.87
783.51	8.87
783.823	8.88
784.136	8.89
784.449	8.9
784.762	8.87
785.075	8.87
785.388	8.85
785.701	8.83
786.014	8.85
786.327	8.84
786.64	8.87
786.953	8.92
787.266	8.96
787.578	8.98
787.891	9
788.204	9.01
788.516	9.04
788.829	9.05
789.141	9.08
789.454	9.06
789.766	9.08
790.079	9.11
790.391	9.11
790.703	9.14
791.016	9.15
791.328	9.15
791.64	9.17
791.952	9.22
792.264	9.19
792.576	9.19
792.888	9.15
793.2	9.22
793.512	9.25
793.824	9.27
794.136	9.27
794.448	9.27
794.76	9.34
795.071	9.35
795.383	9.39
795.695	9.42
796.006	9.4
796.318	9.4
796.629	9.44
796.941	9.45
797.252	9.48
797.564	9.5
797.875	9.51
798.186	9.57
798.497	9.59
798.809	9.58
799.12	9.59
799.431	9.6
799.742	9.61
800.053	9.62
800.364	9.63
800.675	9.6
800.986	9.62
801.297	9.62
801.608	9.65
801.918	9.65
802.229	9.65
802.54	9.65
802.851	9.64
803.161	9.63
803.472	9.62
803.782	9.64
804.093	9.68
804.403	9.71
804.714	9.73
805.024	9.78
805.334	9.81
805.645	9.87
805.955	9.85
806.265	9.87
806.575	9.87
806.885	9.9
807.195	9.98
807.505	9.99
807.815	10.05
808.125	10.03
808.435	10.04
808.745	10.05
809.055	10.05
809.365	10.06
809.674	10.12
809.984	10.14
810.294	10.18
810.603	10.18
810.913	10.18
811.222	10.18
811.532	10.18
811.841	10.26
812.151	10.27
812.46	10.28
812.769	10.23
813.079	10.26
813.388	10.34
813.697	10.35
814.006	10.39
814.315	10.39
814.624	10.38
814.933	10.42
815.242	10.45
815.551	10.48
815.86	10.48
816.169	10.47
816.478	10.5
816.786	10.48
817.095	10.46
817.404	10.39
817.712	10.39
818.021	10.37
818.33	10.34
818.638	10.37
818.947	10.38
819.255	10.38
819.563	10.37
819.872	10.36
820.18	10.37
820.488	10.34
820.796	10.35
821.105	10.34
821.413	10.38
821.721	10.41
822.029	10.43
822.337	10.43
822.645	10.44
822.953	10.44
823.26	10.46
823.568	10.48
823.876	10.5
824.184	10.51
824.491	10.52
824.799	10.53
825.107	10.53
825.414	10.55
825.722	10.56
826.029	10.57
826.337	10.57
826.644	10.58
826.951	10.58
827.259	10.58
827.566	10.58
827.873	10.57
828.18	10.59
828.488	10.6
828.795	10.6
829.102	10.59
829.409	10.61
829.716	10.63
830.023	10.66
830.329	10.66
830.636	10.68
830.943	10.71
831.25	10.71
831.557	10.71
831.863	10.75
832.17	10.79
832.476	10.79
832.783	10.77
833.089	10.77
833.396	10.8
833.702	10.82
834.009	10.82
834.315	10.81
834.621	10.79
834.928	10.81
835.234	10.81
835.54	10.81
835.846	10.79
836.152	10.76
836.458	10.79
836.764	10.81
837.07	10.78
837.376	10.76
837.682	10.78
837.988	10.75
838.293	10.71
838.599	10.7
838.905	10.67
839.211	10.67
839.516	10.66
839.822	10.69
840.127	10.74
840.433	10.81
840.738	10.78
841.044	10.76
841.349	10.78
841.654	10.81
841.959	10.79
842.265	10.77
842.57	10.84
842.875	10.87
843.18	10.82
843.485	10.86
843.79	10.98
844.095	11.07
844.4	11.08
844.705	11.05
845.01	11.03
845.315	11.03
845.619	11.07
845.924	11.16
846.229	11.27
846.533	11.35
846.838	11.41
847.142	11.49
847.447	11.54
847.751	11.58
848.056	11.58
848.36	11.72
848.664	11.73
848.969	11.74
849.273	11.68
849.577	11.71
849.881	11.78
850.185	11.76
850.489	11.72
850.794	11.86
851.097	11.88
851.401	11.98
851.705	12.02
852.009	12.2
852.313	12.24
852.617	12.25
852.92	12.22
853.224	12.31
853.528	12.39
853.831	12.47
854.135	12.56
854.438	12.52
854.742	12.46
855.045	12.36
855.349	12.54
855.652	12.72
855.955	12.88
856.259	12.78
856.562	12.79
856.865	12.9
857.168	12.98
857.471	13.17
857.774	13.33
858.077	13.3
858.38	13.2
858.683	13.15
858.986	13.01
859.289	13.02
859.592	13.02
859.894	12.96
860.197	12.95
860.5	12.99
860.802	12.99
861.105	13.13
861.407	12.95
861.71	12.94
862.012	12.9
862.315	12.94
862.617	12.96
862.919	13.27
863.222	13.21
863.524	13.33
863.826	13.29
864.128	13.12
864.43	13.09
864.732	13
865.034	13.06
865.336	12.98
865.638	12.97
865.94	13.06
866.242	13.08
866.544	13.16
866.846	13.38
867.147	13.48
867.449	13.55
867.751	13.49
868.052	13.59
868.354	13.44
868.655	13.39
868.957	13.3
869.258	13.28
869.56	13.35
869.861	13.37
870.162	13.46
870.463	13.63
870.765	13.56
871.066	13.68
871.367	13.8
871.668	13.81
871.969	13.74
872.27	13.8
872.571	13.84
872.872	13.88
873.173	13.85
873.473	13.79
873.774	13.95
874.075	14.09
874.376	14.2
874.676	14.22
874.977	14.34
875.277	14.17
875.578	14.22
875.878	14.12
876.179	14.18
876.479	14.36
876.78	14.41
877.08	14.53
877.38	14.41
877.68	14.63
877.981	14.58
878.281	14.62
878.581	14.74
