Data from UWBM91361_Reflection_00005.txt Node
Date: Sun May 02 12:21:16 EDT 2021
User: vgr7
Spectrometer: USB2G7710
Scans to average: 10
Trigger mode: 4
Integration Time (sec): 1.000000E-1
Electric dark correction enabled: true
Boxcar width: 10
XAxis mode: Wavelengths
Number of Pixels in Spectrum: 2048
>>>>>Begin Spectral Data<<<<<
177.721	778.08
178.105	-217.65
178.488	-36.68
178.871	14.62
179.254	-137.93
179.636	-75.32
180.019	33.46
180.402	66.67
180.785	114.11
181.168	4.26
181.55	53.21
181.933	-56.2
182.316	-50.89
182.698	-126.96
183.081	-242.35
183.463	-330.43
183.846	-71.86
184.228	-139.77
184.611	-50.3
184.993	-30.42
185.376	1.84
185.758	-0.83
186.14	-10.47
186.522	-10.47
186.904	-24.03
187.287	-24.07
187.669	-28.99
188.051	-29.95
188.433	-21.22
188.815	-22.71
189.197	-16.86
189.579	-18.58
189.961	-12.93
190.342	-11.46
190.724	-2.69
191.106	-3.21
191.488	3.5
191.869	-2.96
192.251	2.5
192.633	-4.16
193.014	-3.38
193.396	-5.14
193.777	-6.62
194.159	-8.94
194.54	-13.37
194.922	-10.5
195.303	-6.02
195.684	-2.75
196.065	-3.9
196.447	-9.94
196.828	-14.07
197.209	-12.57
197.59	-11.28
197.971	-10.61
198.352	-10.75
198.733	-6.33
199.114	-7.79
199.495	-11.59
199.876	-11.76
200.257	-14.53
200.638	-9.01
201.018	-12.38
201.399	-12.59
201.78	-11.91
202.16	-11.04
202.541	-7.54
202.922	-9.66
203.302	-8.09
203.683	-8.27
204.063	-7.88
204.444	-2.85
204.824	1.35
205.204	-0.46
205.585	-1.06
205.965	-2.82
206.345	-7.3
206.725	-20.68
207.106	-19.33
207.486	-19.14
207.866	-12.08
208.246	-11.26
208.626	-13.65
209.006	-11.17
209.386	-14.7
209.766	-15.37
210.145	-14.75
210.525	-19.63
210.905	-14.43
211.285	-14.43
211.664	-13.32
212.044	-9.8
212.424	-6.39
212.803	-8.66
213.183	-3.83
213.562	-2.29
213.942	-2.47
214.321	-3.9
214.701	-3.91
215.08	-1.3
215.459	1.21
215.838	-3.49
216.218	-0.79
216.597	3.01
216.976	1.22
217.355	2.58
217.734	2.59
218.113	0.29
218.492	2.24
218.871	-2.75
219.25	-2.69
219.629	-5.16
220.008	-7.89
220.387	-12.74
220.766	-16.22
221.144	-19.63
221.523	-18.06
221.902	-16.3
222.28	-12.38
222.659	-13.16
223.037	-10.66
223.416	-9.6
223.794	-5.7
224.173	-6.72
224.551	-7.03
224.929	-6.57
225.308	-2.72
225.686	-0.76
226.064	0.57
226.442	1.73
226.821	1.84
227.199	0.12
227.577	0.37
227.955	0.6
228.333	1.45
228.711	1.82
229.089	2.95
229.467	1.92
229.845	2.43
230.222	2.25
230.6	3.48
230.978	2.69
231.356	2
231.733	1.88
232.111	2.03
232.488	1.75
232.866	1.27
233.243	0.49
233.621	0.92
233.998	0.99
234.376	1.22
234.753	2.18
235.13	3.07
235.508	4.07
235.885	3.88
236.262	4.11
236.639	5.07
237.016	5.01
237.393	5.09
237.77	5.14
238.147	5.16
238.524	5.51
238.901	5.53
239.278	5.37
239.655	5.19
240.032	4.98
240.409	5.18
240.785	5.37
241.162	5.4
241.539	5.29
241.915	5.22
242.292	5.2
242.668	5.09
243.045	5.07
243.421	4.88
243.798	4.96
244.174	4.9
244.551	4.76
244.927	4.62
245.303	4.58
245.679	4.58
246.056	4.5
246.432	4.43
246.808	4.42
247.184	4.46
247.56	4.46
247.936	4.48
248.312	4.46
248.688	4.5
249.064	4.48
249.44	4.47
249.815	4.49
250.191	4.45
250.567	4.36
250.943	4.28
251.318	4.34
251.694	4.3
252.069	4.15
252.445	4.2
252.82	4.18
253.196	4.21
253.571	4.07
253.947	4.23
254.322	4.16
254.697	4.17
255.073	4.13
255.448	4.12
255.823	4.11
256.198	4.08
256.573	3.99
256.948	3.93
257.323	3.95
257.698	3.94
258.073	3.96
258.448	4.02
258.823	4.03
259.198	3.95
259.573	3.97
259.948	4.06
260.322	4
260.697	4.04
261.072	4.04
261.446	4.01
261.821	3.97
262.195	3.95
262.57	3.9
262.944	3.9
263.319	3.88
263.693	3.89
264.067	3.87
264.442	3.85
264.816	3.87
265.19	3.88
265.564	3.89
265.938	3.81
266.313	3.76
266.687	3.71
267.061	3.77
267.435	3.7
267.809	3.65
268.183	3.64
268.556	3.61
268.93	3.61
269.304	3.61
269.678	3.63
270.051	3.62
270.425	3.67
270.799	3.7
271.172	3.71
271.546	3.73
271.919	3.73
272.293	3.72
272.666	3.72
273.04	3.69
273.413	3.63
273.787	3.67
274.16	3.69
274.533	3.74
274.906	3.68
275.279	3.75
275.653	3.74
276.026	3.71
276.399	3.69
276.772	3.67
277.145	3.72
277.518	3.7
277.891	3.72
278.263	3.72
278.636	3.76
279.009	3.78
279.382	3.75
279.755	3.75
280.127	3.79
280.5	3.82
280.872	3.79
281.245	3.85
281.617	3.85
281.99	3.86
282.362	3.86
282.735	3.85
283.107	3.8
283.479	3.82
283.852	3.85
284.224	3.89
284.596	3.89
284.968	3.9
285.34	3.9
285.713	3.97
286.085	3.92
286.457	3.9
286.829	3.88
287.201	3.88
287.572	3.92
287.944	3.91
288.316	3.93
288.688	3.98
289.06	4
289.431	4.01
289.803	3.97
290.175	3.96
290.546	3.99
290.918	4.05
291.289	4.06
291.661	4.08
292.032	4.07
292.403	4.1
292.775	4.07
293.146	4.08
293.517	4.05
293.889	4.12
294.26	4.08
294.631	4.09
295.002	4.14
295.373	4.15
295.744	4.15
296.115	4.16
296.486	4.16
296.857	4.15
297.228	4.16
297.599	4.19
297.97	4.21
298.34	4.21
298.711	4.2
299.082	4.18
299.452	4.19
299.823	4.21
300.194	4.21
300.564	4.21
300.935	4.23
301.305	4.22
301.676	4.19
302.046	4.17
302.416	4.18
302.787	4.14
303.157	4.15
303.527	4.19
303.897	4.15
304.267	4.14
304.637	4.12
305.008	4.17
305.378	4.17
305.748	4.21
306.117	4.25
306.487	4.25
306.857	4.29
307.227	4.3
307.597	4.28
307.967	4.29
308.336	4.29
308.706	4.3
309.076	4.34
309.445	4.35
309.815	4.35
310.184	4.36
310.554	4.39
310.923	4.35
311.293	4.35
311.662	4.39
312.031	4.38
312.401	4.4
312.77	4.35
313.139	4.38
313.508	4.33
313.877	4.34
314.246	4.33
314.616	4.31
314.985	4.29
315.353	4.31
315.722	4.32
316.091	4.32
316.46	4.32
316.829	4.31
317.198	4.31
317.567	4.36
317.935	4.34
318.304	4.37
318.672	4.38
319.041	4.36
319.41	4.36
319.778	4.36
320.147	4.39
320.515	4.36
320.883	4.32
321.252	4.33
321.62	4.26
321.988	4.28
322.357	4.3
322.725	4.31
323.093	4.33
323.461	4.32
323.829	4.36
324.197	4.35
324.565	4.35
324.933	4.35
325.301	4.39
325.669	4.41
326.037	4.37
326.405	4.36
326.772	4.34
327.14	4.3
327.508	4.31
327.875	4.32
328.243	4.37
328.61	4.36
328.978	4.39
329.346	4.38
329.713	4.34
330.08	4.32
330.448	4.31
330.815	4.31
331.182	4.28
331.55	4.27
331.917	4.29
332.284	4.3
332.651	4.33
333.018	4.3
333.385	4.29
333.752	4.29
334.119	4.3
334.486	4.34
334.853	4.38
335.22	4.36
335.587	4.34
335.954	4.34
336.32	4.35
336.687	4.33
337.054	4.36
337.42	4.37
337.787	4.37
338.153	4.42
338.52	4.42
338.886	4.45
339.253	4.45
339.619	4.42
339.986	4.42
340.352	4.41
340.718	4.45
341.084	4.46
341.451	4.46
341.817	4.44
342.183	4.44
342.549	4.44
342.915	4.45
343.281	4.46
343.647	4.47
344.013	4.49
344.379	4.49
344.745	4.48
345.11	4.49
345.476	4.51
345.842	4.52
346.208	4.5
346.573	4.49
346.939	4.51
347.304	4.5
347.67	4.47
348.035	4.48
348.401	4.44
348.766	4.47
349.132	4.47
349.497	4.51
349.862	4.49
350.228	4.48
350.593	4.47
350.958	4.46
351.323	4.46
351.688	4.48
352.053	4.48
352.418	4.51
352.783	4.51
353.148	4.49
353.513	4.45
353.878	4.47
354.243	4.46
354.608	4.46
354.972	4.46
355.337	4.45
355.702	4.44
356.066	4.45
356.431	4.41
356.795	4.4
357.16	4.37
357.524	4.38
357.889	4.37
358.253	4.39
358.618	4.38
358.982	4.39
359.346	4.38
359.71	4.37
360.075	4.36
360.439	4.36
360.803	4.34
361.167	4.34
361.531	4.36
361.895	4.35
362.259	4.36
362.623	4.37
362.987	4.39
363.351	4.39
363.714	4.39
364.078	4.38
364.442	4.38
364.806	4.39
365.169	4.4
365.533	4.39
365.896	4.38
366.26	4.4
366.623	4.36
366.987	4.35
367.35	4.38
367.714	4.38
368.077	4.4
368.44	4.41
368.803	4.41
369.167	4.4
369.53	4.4
369.893	4.4
370.256	4.39
370.619	4.38
370.982	4.38
371.345	4.38
371.708	4.4
372.071	4.39
372.434	4.39
372.797	4.37
373.159	4.39
373.522	4.39
373.885	4.38
374.247	4.4
374.61	4.39
374.973	4.37
375.335	4.37
375.698	4.37
376.06	4.37
376.423	4.38
376.785	4.37
377.147	4.38
377.51	4.39
377.872	4.4
378.234	4.39
378.596	4.4
378.958	4.4
379.321	4.4
379.683	4.4
380.045	4.4
380.407	4.42
380.769	4.41
381.13	4.41
381.492	4.41
381.854	4.4
382.216	4.42
382.578	4.43
382.939	4.45
383.301	4.43
383.663	4.44
384.024	4.44
384.386	4.45
384.747	4.45
385.109	4.45
385.47	4.45
385.832	4.45
386.193	4.44
386.554	4.44
386.916	4.45
387.277	4.45
387.638	4.45
387.999	4.45
388.36	4.46
388.721	4.47
389.082	4.46
389.443	4.48
389.804	4.47
390.165	4.46
390.526	4.46
390.887	4.45
391.248	4.45
391.609	4.46
391.969	4.45
392.33	4.45
392.691	4.45
393.051	4.45
393.412	4.45
393.772	4.46
394.133	4.47
394.493	4.46
394.854	4.46
395.214	4.45
395.574	4.45
395.935	4.45
396.295	4.44
396.655	4.44
397.015	4.43
397.376	4.42
397.736	4.42
398.096	4.42
398.456	4.42
398.816	4.41
399.176	4.41
399.535	4.41
399.895	4.41
400.255	4.41
400.615	4.4
400.975	4.41
401.334	4.4
401.694	4.4
402.054	4.39
402.413	4.4
402.773	4.4
403.132	4.4
403.492	4.41
403.851	4.41
404.211	4.41
404.57	4.42
404.929	4.42
405.288	4.42
405.648	4.42
406.007	4.42
406.366	4.43
406.725	4.43
407.084	4.42
407.443	4.41
407.802	4.41
408.161	4.42
408.52	4.42
408.879	4.43
409.238	4.42
409.596	4.42
409.955	4.41
410.314	4.41
410.673	4.41
411.031	4.41
411.39	4.41
411.748	4.41
412.107	4.41
412.465	4.42
412.824	4.43
413.182	4.42
413.54	4.42
413.899	4.43
414.257	4.44
414.615	4.45
414.974	4.45
415.332	4.47
415.69	4.47
416.048	4.48
416.406	4.48
416.764	4.49
417.122	4.5
417.48	4.51
417.838	4.52
418.195	4.53
418.553	4.54
418.911	4.55
419.269	4.56
419.626	4.57
419.984	4.57
420.342	4.58
420.699	4.6
421.057	4.6
421.414	4.61
421.772	4.62
422.129	4.62
422.486	4.62
422.844	4.62
423.201	4.62
423.558	4.62
423.915	4.62
424.273	4.62
424.63	4.62
424.987	4.61
425.344	4.62
425.701	4.61
426.058	4.61
426.415	4.6
426.772	4.59
427.128	4.59
427.485	4.57
427.842	4.57
428.199	4.56
428.555	4.56
428.912	4.55
429.269	4.54
429.625	4.54
429.982	4.53
430.338	4.53
430.695	4.54
431.051	4.53
431.407	4.53
431.764	4.53
432.12	4.53
432.476	4.53
432.832	4.54
433.189	4.54
433.545	4.54
433.901	4.54
434.257	4.54
434.613	4.54
434.969	4.55
435.325	4.56
435.681	4.57
436.036	4.56
436.392	4.57
436.748	4.57
437.104	4.58
437.459	4.58
437.815	4.58
438.171	4.59
438.526	4.59
438.882	4.6
439.237	4.6
439.593	4.61
439.948	4.61
440.304	4.61
440.659	4.61
441.014	4.61
441.369	4.61
441.725	4.62
442.08	4.63
442.435	4.63
442.79	4.63
443.145	4.63
443.5	4.63
443.855	4.64
444.21	4.63
444.565	4.63
444.92	4.64
445.275	4.64
445.629	4.64
445.984	4.65
446.339	4.65
446.693	4.65
447.048	4.64
447.403	4.65
447.757	4.65
448.112	4.65
448.466	4.65
448.82	4.65
449.175	4.65
449.529	4.64
449.883	4.64
450.238	4.63
450.592	4.62
450.946	4.62
451.3	4.62
451.654	4.62
452.008	4.61
452.362	4.6
452.716	4.6
453.07	4.59
453.424	4.59
453.778	4.59
454.132	4.58
454.486	4.58
454.839	4.58
455.193	4.59
455.547	4.59
455.9	4.58
456.254	4.58
456.607	4.59
456.961	4.6
457.314	4.61
457.668	4.62
458.021	4.62
458.375	4.63
458.728	4.64
459.081	4.64
459.434	4.64
459.787	4.64
460.141	4.64
460.494	4.64
460.847	4.64
461.2	4.64
461.553	4.64
461.906	4.63
462.259	4.63
462.611	4.63
462.964	4.63
463.317	4.63
463.67	4.62
464.022	4.62
464.375	4.62
464.728	4.6
465.08	4.59
465.433	4.58
465.785	4.58
466.138	4.57
466.49	4.56
466.843	4.56
467.195	4.57
467.547	4.56
467.899	4.57
468.252	4.56
468.604	4.56
468.956	4.56
469.308	4.57
469.66	4.57
470.012	4.56
470.364	4.57
470.716	4.57
471.068	4.57
471.42	4.57
471.772	4.57
472.123	4.58
472.475	4.59
472.827	4.59
473.178	4.59
473.53	4.59
473.882	4.6
474.233	4.6
474.585	4.6
474.936	4.6
475.288	4.61
475.639	4.62
475.99	4.63
476.342	4.63
476.693	4.64
477.044	4.63
477.395	4.64
477.746	4.65
478.097	4.66
478.448	4.69
478.8	4.77
479.15	4.9
479.501	5.05
479.852	5.22
480.203	5.41
480.554	5.6
480.905	5.79
481.255	5.99
481.606	6.18
481.957	6.37
482.307	6.56
482.658	6.71
483.009	6.86
483.359	6.97
483.709	7.08
484.06	7.19
484.41	7.28
484.761	7.37
485.111	7.46
485.461	7.54
485.811	7.63
486.162	7.66
486.512	7.66
486.862	7.63
487.212	7.57
487.562	7.48
487.912	7.38
488.262	7.27
488.612	7.15
488.961	7.01
489.311	6.85
489.661	6.7
490.011	6.55
490.36	6.39
490.71	6.23
491.06	6.06
491.409	5.89
491.759	5.76
492.108	5.64
492.458	5.54
492.807	5.46
493.157	5.37
493.506	5.27
493.855	5.19
494.204	5.11
494.554	5.03
494.903	4.95
495.252	4.88
495.601	4.81
495.95	4.75
496.299	4.7
496.648	4.66
496.997	4.62
497.346	4.6
497.695	4.59
498.043	4.62
498.392	4.67
498.741	4.72
499.09	4.75
499.438	4.76
499.787	4.75
500.135	4.75
500.484	4.75
500.832	4.76
501.181	4.76
501.529	4.77
501.878	4.77
502.226	4.76
502.574	4.77
502.923	4.77
503.271	4.78
503.619	4.78
503.967	4.79
504.315	4.8
504.663	4.8
505.011	4.81
505.359	4.81
505.707	4.82
506.055	4.83
506.403	4.84
506.751	4.85
507.098	4.86
507.446	4.88
507.794	4.88
508.141	4.88
508.489	4.89
508.837	4.9
509.184	4.91
509.531	4.92
509.879	4.93
510.226	4.94
510.574	4.95
510.921	4.96
511.268	4.96
511.616	4.96
511.963	4.97
512.31	4.97
512.657	4.98
513.004	4.98
513.351	4.99
513.698	4.99
514.045	5
514.392	5.01
514.739	5.01
515.086	5.02
515.432	5.03
515.779	5.03
516.126	5.04
516.473	5.05
516.819	5.06
517.166	5.06
517.512	5.06
517.859	5.07
518.205	5.08
518.552	5.08
518.898	5.1
519.245	5.09
519.591	5.09
519.937	5.1
520.283	5.1
520.629	5.1
520.976	5.1
521.322	5.1
521.668	5.1
522.014	5.11
522.36	5.11
522.706	5.12
523.052	5.14
523.398	5.18
523.743	5.26
524.089	5.36
524.435	5.47
524.781	5.59
525.126	5.7
525.472	5.82
525.817	5.94
526.163	6.05
526.509	6.16
526.854	6.24
527.199	6.31
527.545	6.36
527.89	6.39
528.235	6.42
528.581	6.45
528.926	6.47
529.271	6.5
529.616	6.52
529.961	6.54
530.306	6.54
530.651	6.53
530.996	6.48
531.341	6.42
531.686	6.34
532.031	6.24
532.376	6.12
532.721	5.99
533.065	5.86
533.41	5.74
533.755	5.62
534.099	5.54
534.444	5.47
534.788	5.42
535.133	5.38
535.477	5.34
535.822	5.3
536.166	5.27
536.51	5.25
536.855	5.23
537.199	5.22
537.543	5.21
537.887	5.21
538.231	5.21
538.576	5.23
538.92	5.25
539.264	5.27
539.608	5.31
539.951	5.35
540.295	5.38
540.639	5.4
540.983	5.4
541.327	5.39
541.671	5.39
542.014	5.39
542.358	5.39
542.701	5.4
543.045	5.4
543.389	5.41
543.732	5.4
544.075	5.4
544.419	5.4
544.762	5.39
545.105	5.38
545.449	5.36
545.792	5.34
546.135	5.31
546.478	5.28
546.821	5.26
547.165	5.24
547.508	5.24
547.851	5.24
548.194	5.25
548.536	5.27
548.879	5.27
549.222	5.26
549.565	5.25
549.908	5.25
550.25	5.24
550.593	5.23
550.936	5.22
551.278	5.21
551.621	5.21
551.963	5.2
552.306	5.2
552.648	5.19
552.991	5.18
553.333	5.18
553.675	5.17
554.017	5.17
554.36	5.18
554.702	5.17
555.044	5.17
555.386	5.18
555.728	5.17
556.07	5.17
556.412	5.17
556.754	5.17
557.096	5.17
557.438	5.16
557.78	5.16
558.121	5.16
558.463	5.16
558.805	5.16
559.147	5.17
559.488	5.16
559.83	5.16
560.171	5.16
560.513	5.16
560.854	5.16
561.196	5.17
561.537	5.18
561.878	5.18
562.22	5.18
562.561	5.18
562.902	5.18
563.243	5.2
563.584	5.2
563.925	5.21
564.266	5.21
564.607	5.22
564.948	5.23
565.289	5.23
565.63	5.24
565.971	5.24
566.312	5.25
566.653	5.26
566.993	5.27
567.334	5.27
567.675	5.28
568.015	5.28
568.356	5.28
568.696	5.28
569.037	5.28
569.377	5.29
569.718	5.3
570.058	5.3
570.398	5.3
570.739	5.3
571.079	5.3
571.419	5.31
571.759	5.32
572.099	5.32
572.439	5.32
572.779	5.33
573.119	5.34
573.459	5.33
573.799	5.33
574.139	5.34
574.479	5.35
574.819	5.34
575.158	5.35
575.498	5.36
575.838	5.35
576.177	5.35
576.517	5.35
576.856	5.34
577.196	5.33
577.535	5.33
577.875	5.34
578.214	5.33
578.553	5.32
578.893	5.31
579.232	5.29
579.571	5.28
579.91	5.28
580.25	5.26
580.589	5.25
580.928	5.24
581.267	5.23
581.606	5.22
581.945	5.22
582.283	5.21
582.622	5.21
582.961	5.22
583.3	5.22
583.639	5.22
583.977	5.23
584.316	5.23
584.654	5.24
584.993	5.24
585.332	5.24
585.67	5.25
586.008	5.26
586.347	5.28
586.685	5.29
587.024	5.28
587.362	5.29
587.7	5.31
588.038	5.3
588.376	5.3
588.715	5.32
589.053	5.32
589.391	5.32
589.729	5.32
590.067	5.32
590.404	5.32
590.742	5.33
591.08	5.34
591.418	5.35
591.756	5.34
592.093	5.35
592.431	5.35
592.769	5.36
593.106	5.36
593.444	5.36
593.781	5.36
594.119	5.37
594.456	5.36
594.793	5.37
595.131	5.39
595.468	5.4
595.805	5.39
596.143	5.39
596.48	5.4
596.817	5.41
597.154	5.42
597.491	5.41
597.828	5.4
598.165	5.4
598.502	5.39
598.839	5.4
599.176	5.39
599.512	5.39
599.849	5.38
600.186	5.38
600.523	5.37
600.859	5.37
601.196	5.37
601.532	5.38
601.869	5.39
602.205	5.38
602.542	5.38
602.878	5.39
603.215	5.4
603.551	5.39
603.887	5.39
604.223	5.41
604.56	5.4
604.896	5.41
605.232	5.4
605.568	5.41
605.904	5.41
606.24	5.43
606.576	5.44
606.912	5.45
607.248	5.45
607.583	5.46
607.919	5.46
608.255	5.45
608.591	5.44
608.926	5.45
609.262	5.45
609.597	5.45
609.933	5.46
610.268	5.46
610.604	5.48
610.939	5.46
611.275	5.45
611.61	5.45
611.945	5.44
612.281	5.46
612.616	5.45
612.951	5.46
613.286	5.45
613.621	5.44
613.956	5.44
614.291	5.44
614.626	5.43
614.961	5.44
615.296	5.44
615.631	5.45
615.966	5.43
616.3	5.42
616.635	5.42
616.97	5.4
617.304	5.39
617.639	5.37
617.973	5.38
618.308	5.38
618.642	5.38
618.977	5.39
619.311	5.38
619.646	5.39
619.98	5.39
620.314	5.39
620.648	5.41
620.983	5.41
621.317	5.42
621.651	5.43
621.985	5.43
622.319	5.43
622.653	5.43
622.987	5.44
623.321	5.46
623.655	5.47
623.988	5.49
624.322	5.49
624.656	5.52
624.99	5.52
625.323	5.53
625.657	5.54
625.99	5.55
626.324	5.55
626.657	5.55
626.991	5.56
627.324	5.56
627.658	5.55
627.991	5.55
628.324	5.55
628.657	5.55
628.991	5.56
629.324	5.57
629.657	5.58
629.99	5.58
630.323	5.59
630.656	5.59
630.989	5.58
631.322	5.59
631.655	5.57
631.987	5.57
632.32	5.57
632.653	5.58
632.986	5.57
633.318	5.57
633.651	5.57
633.984	5.56
634.316	5.57
634.649	5.57
634.981	5.58
635.313	5.58
635.646	5.57
635.978	5.58
636.31	5.58
636.643	5.58
636.975	5.59
637.307	5.57
637.639	5.56
637.971	5.56
638.303	5.56
638.635	5.56
638.967	5.57
639.299	5.57
639.631	5.57
639.963	5.59
640.295	5.58
640.626	5.59
640.958	5.59
641.29	5.6
641.621	5.59
641.953	5.6
642.285	5.59
642.616	5.62
642.948	5.62
643.279	5.62
643.61	5.61
643.942	5.6
644.273	5.61
644.604	5.61
644.936	5.63
645.267	5.62
645.598	5.64
645.929	5.65
646.26	5.65
646.591	5.65
646.922	5.65
647.253	5.66
647.584	5.66
647.915	5.67
648.245	5.66
648.576	5.68
648.907	5.68
649.238	5.7
649.568	5.69
649.899	5.68
650.229	5.69
650.56	5.7
650.89	5.72
651.221	5.74
651.551	5.76
651.882	5.75
652.212	5.76
652.542	5.76
652.872	5.76
653.203	5.77
653.533	5.78
653.863	5.78
654.193	5.77
654.523	5.75
654.853	5.76
655.183	5.75
655.513	5.74
655.843	5.75
656.172	5.75
656.502	5.78
656.832	5.78
657.162	5.79
657.491	5.78
657.821	5.78
658.15	5.77
658.48	5.77
658.809	5.76
659.139	5.77
659.468	5.78
659.798	5.8
660.127	5.81
660.456	5.82
660.785	5.81
661.115	5.85
661.444	5.87
661.773	5.88
662.102	5.89
662.431	5.91
662.76	5.91
663.089	5.91
663.418	5.89
663.747	5.87
664.076	5.88
664.404	5.88
664.733	5.89
665.062	5.9
665.39	5.89
665.719	5.91
666.048	5.9
666.376	5.9
666.705	5.89
667.033	5.88
667.362	5.89
667.69	5.9
668.018	5.87
668.347	5.89
668.675	5.89
669.003	5.89
669.331	5.86
669.659	5.86
669.987	5.87
670.315	5.89
670.643	5.9
670.971	5.91
671.299	5.91
671.627	5.92
671.955	5.92
672.283	5.91
672.61	5.92
672.938	5.92
673.266	5.94
673.593	5.94
673.921	5.95
674.249	5.94
674.576	5.97
674.904	5.99
675.231	5.96
675.558	5.98
675.886	6.01
676.213	6.05
676.54	6.07
676.867	6.07
677.195	6.09
677.522	6.12
677.849	6.13
678.176	6.13
678.503	6.14
678.83	6.16
679.157	6.18
679.484	6.18
679.81	6.17
680.137	6.17
680.464	6.16
680.791	6.16
681.117	6.15
681.444	6.14
681.771	6.16
682.097	6.19
682.424	6.2
682.75	6.2
683.077	6.19
683.403	6.19
683.729	6.19
684.056	6.18
684.382	6.17
684.708	6.17
685.034	6.19
685.36	6.18
685.686	6.2
686.012	6.22
686.339	6.26
686.664	6.25
686.99	6.27
687.316	6.29
687.642	6.29
687.968	6.31
688.294	6.28
688.619	6.28
688.945	6.25
689.271	6.24
689.596	6.22
689.922	6.26
690.247	6.27
690.573	6.29
690.898	6.32
691.224	6.33
691.549	6.3
691.874	6.28
692.2	6.29
692.525	6.28
692.85	6.25
693.175	6.26
693.5	6.29
693.825	6.27
694.15	6.25
694.475	6.28
694.8	6.29
695.125	6.3
695.45	6.32
695.775	6.32
696.099	6.33
696.424	6.35
696.749	6.35
697.073	6.36
697.398	6.35
697.723	6.33
698.047	6.34
698.372	6.38
698.696	6.42
699.02	6.42
699.345	6.42
699.669	6.43
699.993	6.42
700.318	6.42
700.642	6.41
700.966	6.42
701.29	6.44
701.614	6.43
701.938	6.43
702.262	6.45
702.586	6.47
702.91	6.46
703.234	6.48
703.557	6.42
703.881	6.42
704.205	6.45
704.529	6.46
704.852	6.42
705.176	6.42
705.499	6.37
705.823	6.39
706.146	6.38
706.47	6.39
706.793	6.39
707.117	6.42
707.44	6.44
707.763	6.46
708.086	6.47
708.409	6.46
708.733	6.47
709.056	6.45
709.379	6.42
709.702	6.44
710.025	6.46
710.348	6.48
710.671	6.47
710.993	6.5
711.316	6.49
711.639	6.54
711.962	6.53
712.284	6.55
712.607	6.59
712.93	6.61
713.252	6.61
713.575	6.63
713.897	6.63
714.22	6.65
714.542	6.63
714.864	6.62
715.187	6.66
715.509	6.67
715.831	6.66
716.153	6.71
716.475	6.74
716.798	6.73
717.12	6.74
717.442	6.76
717.764	6.74
718.085	6.76
718.407	6.77
718.729	6.73
719.051	6.73
719.373	6.72
719.695	6.67
720.016	6.68
720.338	6.67
720.659	6.65
720.981	6.68
721.302	6.7
721.624	6.72
721.945	6.73
722.267	6.71
722.588	6.73
722.909	6.76
723.231	6.72
723.552	6.69
723.873	6.73
724.194	6.75
724.515	6.82
724.836	6.81
725.157	6.83
725.478	6.85
725.799	6.87
726.12	6.87
726.441	6.92
726.762	6.97
727.083	6.96
727.403	6.99
727.724	6.95
728.045	6.97
728.365	6.98
728.686	7.03
729.006	7.1
729.327	7.1
729.647	7.06
729.967	7.1
730.288	7.14
730.608	7.13
730.928	7.12
731.249	7.06
731.569	7.1
731.889	7.08
732.209	7.13
732.529	7.13
732.849	7.12
733.169	7.12
733.489	7.06
733.809	7.09
734.129	7.12
734.448	7.13
734.768	7.09
735.088	7.12
735.408	7.07
735.727	7.05
736.047	7.06
736.366	7.03
736.686	7
737.005	6.98
737.325	6.98
737.644	6.98
737.963	7
738.283	6.9
738.602	6.92
738.921	6.89
739.24	6.89
739.56	6.87
739.879	6.86
740.198	6.94
740.517	6.93
740.836	6.89
741.155	6.89
741.473	6.91
741.792	6.88
742.111	6.9
742.43	6.89
742.748	6.86
743.067	6.96
743.386	6.94
743.704	6.99
744.023	6.96
744.341	6.97
744.66	6.99
744.978	7.08
745.297	7.07
745.615	7.09
745.933	7.14
746.252	7.15
746.57	7.14
746.888	7.08
747.206	7.08
747.524	7.07
747.842	7.14
748.16	7.19
748.478	7.22
748.796	7.24
749.114	7.24
749.432	7.27
749.749	7.19
750.067	7.22
750.385	7.17
750.703	7.17
751.02	7.13
751.338	7.13
751.655	7.09
751.973	7.06
752.29	7.03
752.608	7.06
752.925	7.14
753.242	7.18
753.56	7.19
753.877	7.14
754.194	7.21
754.511	7.15
754.828	7.16
755.145	7.13
755.462	7.11
755.779	7.09
756.096	7.04
756.413	7.09
756.73	7.14
757.047	7.19
757.364	7.28
757.68	7.37
757.997	7.38
758.314	7.41
758.63	7.5
758.947	7.61
759.264	7.56
759.58	7.54
759.896	7.53
760.213	7.57
760.529	7.6
760.846	7.5
761.162	7.57
761.478	7.56
761.794	7.58
762.11	7.59
762.426	7.65
762.743	7.73
763.059	7.77
763.375	7.78
763.69	7.79
764.006	7.79
764.322	7.79
764.638	7.74
764.954	7.77
765.27	7.76
765.585	7.71
765.901	7.72
766.216	7.68
766.532	7.67
766.848	7.68
767.163	7.75
767.478	7.85
767.794	7.83
768.109	7.88
768.424	7.87
768.74	7.92
769.055	7.91
769.37	7.92
769.685	7.95
770	7.91
770.315	7.87
770.63	7.86
770.945	7.8
771.26	7.83
771.575	7.86
771.89	7.84
772.205	7.88
772.52	7.88
772.834	7.88
773.149	7.9
773.464	7.93
773.778	7.87
774.093	7.84
774.407	7.86
774.722	7.82
775.036	7.73
775.351	7.65
775.665	7.65
775.979	7.55
776.293	7.45
776.608	7.46
776.922	7.47
777.236	7.44
777.55	7.49
777.864	7.53
778.178	7.47
778.492	7.49
778.806	7.46
779.12	7.51
779.434	7.62
779.747	7.52
780.061	7.51
780.375	7.49
780.689	7.5
781.002	7.52
781.316	7.48
781.629	7.63
781.943	7.69
782.256	7.67
782.57	7.75
782.883	7.78
783.196	7.79
783.51	7.84
783.823	7.92
784.136	7.9
784.449	7.98
784.762	8
785.075	7.93
785.388	7.91
785.701	7.92
786.014	7.83
786.327	7.89
786.64	7.88
786.953	7.95
787.266	8.08
787.578	8.07
787.891	8.09
788.204	8.08
788.516	8.1
788.829	8.11
789.141	8.18
789.454	8.14
789.766	8.14
790.079	8.18
790.391	8.18
790.703	8.23
791.016	8.21
791.328	8.26
791.64	8.35
791.952	8.36
792.264	8.37
792.576	8.49
792.888	8.59
793.2	8.72
793.512	8.71
793.824	8.6
794.136	8.55
794.448	8.68
794.76	8.67
795.071	8.78
795.383	8.85
795.695	8.83
796.006	8.88
796.318	8.9
796.629	8.86
796.941	8.84
797.252	8.94
797.564	8.93
797.875	8.82
798.186	8.79
798.497	8.9
798.809	8.84
799.12	8.74
799.431	8.75
799.742	8.65
800.053	8.66
800.364	8.74
800.675	8.81
800.986	8.78
801.297	8.77
801.608	8.74
801.918	8.79
802.229	8.82
802.54	8.83
802.851	8.77
803.161	8.77
803.472	8.75
803.782	8.59
804.093	8.64
804.403	8.63
804.714	8.66
805.024	8.6
805.334	8.66
805.645	8.67
805.955	8.71
806.265	8.63
806.575	8.64
806.885	8.55
807.195	8.47
807.505	8.51
807.815	8.5
808.125	8.53
808.435	8.47
808.745	8.54
809.055	8.62
809.365	8.78
809.674	8.82
809.984	8.89
810.294	9.01
810.603	9.02
810.913	9.22
811.222	9.22
811.532	9.41
811.841	9.43
812.151	9.52
812.46	9.47
812.769	9.63
813.079	9.54
813.388	9.62
813.697	9.73
814.006	9.75
814.315	9.88
814.624	9.85
814.933	9.88
815.242	9.73
815.551	9.69
815.86	9.69
816.169	9.77
816.478	9.9
816.786	9.76
817.095	9.78
817.404	9.86
817.712	9.85
818.021	9.66
818.33	9.66
818.638	9.67
818.947	9.79
819.255	9.83
819.563	9.92
819.872	9.89
820.18	9.94
820.488	9.91
820.796	9.89
821.105	9.88
821.413	9.89
821.721	9.93
822.029	9.98
822.337	10.02
822.645	10.01
822.953	9.96
823.26	10
823.568	9.97
823.876	9.96
824.184	9.96
824.491	10.01
824.799	10
825.107	10.02
825.414	9.99
825.722	10.01
826.029	10.03
826.337	10.06
826.644	10.04
826.951	10.05
827.259	10.09
827.566	10.13
827.873	10.14
828.18	10.1
828.488	10.03
828.795	10.01
829.102	10.02
829.409	10.06
829.716	10.1
830.023	10.12
830.329	10.12
830.636	10.15
830.943	10.16
831.25	10.24
831.557	10.23
831.863	10.22
832.17	10.14
832.476	10.11
832.783	10.09
833.089	10.14
833.396	10.16
833.702	10.18
834.009	10.12
834.315	10.12
834.621	10.28
834.928	10.31
835.234	10.31
835.54	10.39
835.846	10.51
836.152	10.41
836.458	10.49
836.764	10.48
837.07	10.49
837.376	10.31
837.682	10.24
837.988	10.38
838.293	10.45
838.599	10.51
838.905	10.54
839.211	10.62
839.516	10.66
839.822	10.89
840.127	10.69
840.433	10.84
840.738	10.9
841.044	10.83
841.349	11.08
841.654	11.14
841.959	10.89
842.265	10.86
842.57	11.01
842.875	10.9
843.18	10.99
843.485	11.06
843.79	11.42
844.095	11.52
844.4	11.25
844.705	11.12
845.01	11.2
845.315	11.13
845.619	10.94
845.924	10.7
846.229	9.86
846.533	10.15
846.838	10.23
847.142	10.17
847.447	10.01
847.751	9.77
848.056	9.64
848.36	9.59
848.664	9.17
848.969	8.93
849.273	9.18
849.577	8.98
849.881	9.1
850.185	9.07
850.489	9.21
850.794	9.42
851.097	9.6
851.401	9.6
851.705	9.78
852.009	9.67
852.313	9.58
852.617	10.18
852.92	9.84
853.224	9.43
853.528	9.8
853.831	10.17
854.135	10.02
854.438	10.25
854.742	10.74
855.045	10.85
855.349	10.96
855.652	10.83
855.955	10.94
856.259	10.84
856.562	10.95
856.865	10.87
857.168	10.57
857.471	10.62
857.774	10.73
858.077	10.47
858.38	10.71
858.683	11.04
858.986	10.81
859.289	11.43
859.592	11.77
859.894	11.45
860.197	11.46
860.5	11.38
860.802	11.25
861.105	11.06
861.407	11.32
861.71	11.59
862.012	11.91
862.315	12.19
862.617	12.09
862.919	11.99
863.222	12.24
863.524	12.58
863.826	12.77
864.128	12.6
864.43	12.5
864.732	12.64
865.034	12.61
865.336	12.92
865.638	12.59
865.94	12.09
866.242	11.98
866.544	11.74
866.846	12.16
867.147	12.46
867.449	12.02
867.751	11.91
868.052	11.74
868.354	11.43
868.655	11.5
868.957	11.55
869.258	11.47
869.56	10.96
869.861	11.09
870.162	11.16
870.463	11.26
870.765	11.18
871.066	11.61
871.367	11.61
871.668	11.7
871.969	11.66
872.27	11.81
872.571	11.95
872.872	12.41
873.173	12.47
873.473	12.07
873.774	12.39
874.075	12.32
874.376	12.36
874.676	12.36
874.977	12.17
875.277	12.34
875.578	11.72
875.878	11.93
876.179	11.66
876.479	11.38
876.78	11.43
877.08	11.88
877.38	11.3
877.68	11.27
877.981	11.01
878.281	11.12
878.581	11.26
