Data from UWBM122453_Reflection_00008.txt Node
Date: Sun May 02 12:40:49 EDT 2021
User: vgr7
Spectrometer: USB2G7710
Scans to average: 10
Trigger mode: 4
Integration Time (sec): 1.000000E-1
Electric dark correction enabled: true
Boxcar width: 20
XAxis mode: Wavelengths
Number of Pixels in Spectrum: 2048
>>>>>Begin Spectral Data<<<<<
177.721	99.1
178.105	99.27
178.488	99.23
178.871	99.6
179.254	99.42
179.636	96.96
180.019	94.27
180.402	91.55
180.785	89.3
181.168	87.42
181.55	84.22
181.933	113.51
182.316	115.17
182.698	115.8
183.081	116.31
183.463	117.76
183.846	120.58
184.228	121.79
184.611	123.21
184.993	127.82
185.376	130.35
185.758	-89.42
186.14	-45.94
186.522	-14.07
186.904	-3.18
187.287	6.86
187.669	11.71
188.051	13
188.433	20.38
188.815	14.77
189.197	15.29
189.579	14.83
189.961	14.84
190.342	9.03
190.724	10.01
191.106	7.49
191.488	10.07
191.869	1.16
192.251	2.42
192.633	0.43
193.014	0.21
193.396	-0.24
193.777	7.23
194.159	6.84
194.54	2.74
194.922	1.92
195.303	5.59
195.684	6.3
196.065	6.22
196.447	2.34
196.828	1.75
197.209	3.97
197.59	-6.67
197.971	-8.93
198.352	-7.88
198.733	-4
199.114	-3.23
199.495	-3.38
199.876	-4.02
200.257	-4.8
200.638	-5.97
201.018	-11.93
201.399	-14.29
201.78	-14.57
202.16	-12.79
202.541	-11.45
202.922	-11.04
203.302	-13.82
203.683	-12.34
204.063	-13.44
204.444	-11.57
204.824	-9.71
205.204	-6.62
205.585	1.53
205.965	2.78
206.345	4.04
206.725	-0.76
207.106	-0.42
207.486	1.74
207.866	1.99
208.246	2.47
208.626	4.64
209.006	9.73
209.386	6.3
209.766	6.72
210.145	7.49
210.525	7.58
210.905	7.46
211.285	8.03
211.664	7.01
212.044	9.19
212.424	8.11
212.803	3.38
213.183	5.5
213.562	6.04
213.942	5.08
214.321	2.41
214.701	1.19
215.08	3.13
215.459	3.33
215.838	1.83
216.218	2.23
216.597	0.68
216.976	-1.07
217.355	-1.41
217.734	-2.94
218.113	-2.42
218.492	-1.35
218.871	-0.32
219.25	-0.85
219.629	-0.67
220.008	-0.97
220.387	-0.45
220.766	-0.07
221.144	-1.35
221.523	0.46
221.902	0.93
222.28	2.47
222.659	3.6
223.037	3.22
223.416	3.89
223.794	5.06
224.173	4.52
224.551	3.58
224.929	3.74
225.308	4.93
225.686	5.05
226.064	5.12
226.442	4.97
226.821	4.96
227.199	4.85
227.577	4.57
227.955	4.68
228.333	4.83
228.711	4.74
229.089	5.53
229.467	5.39
229.845	6.09
230.222	5.93
230.6	6.1
230.978	6.08
231.356	5.69
231.733	5.92
232.111	6.02
232.488	5.73
232.866	5.81
233.243	5.79
233.621	6.07
233.998	6.04
234.376	6.05
234.753	6.09
235.13	6.11
235.508	6.77
235.885	6.95
236.262	6.91
236.639	7.09
237.016	7.02
237.393	7.06
237.77	6.83
238.147	6.81
238.524	6.87
238.901	6.86
239.278	6.85
239.655	6.83
240.032	6.82
240.409	6.88
240.785	6.83
241.162	6.89
241.539	6.87
241.915	6.92
242.292	6.9
242.668	6.87
243.045	6.89
243.421	6.78
243.798	6.76
244.174	6.79
244.551	6.69
244.927	6.51
245.303	6.5
245.679	6.56
246.056	6.52
246.432	6.52
246.808	6.32
247.184	6.3
247.56	6.28
247.936	6.31
248.312	6.32
248.688	6.36
249.064	6.3
249.44	6.24
249.815	6.27
250.191	6.23
250.567	6.24
250.943	6.31
251.318	6.32
251.694	6.26
252.069	6.19
252.445	6.21
252.82	6.3
253.196	6.32
253.571	6.26
253.947	6.35
254.322	6.33
254.697	6.46
255.073	6.46
255.448	6.44
255.823	6.42
256.198	6.35
256.573	6.17
256.948	6.15
257.323	6.14
257.698	6.09
258.073	6.08
258.448	5.94
258.823	5.92
259.198	5.91
259.573	5.89
259.948	5.93
260.322	5.87
260.697	5.84
261.072	5.84
261.446	5.82
261.821	5.79
262.195	5.75
262.57	5.72
262.944	5.7
263.319	5.68
263.693	5.69
264.067	5.69
264.442	5.77
264.816	5.77
265.19	5.73
265.564	5.78
265.938	5.73
266.313	5.77
266.687	5.71
267.061	5.71
267.435	5.7
267.809	5.67
268.183	5.65
268.556	5.66
268.93	5.66
269.304	5.62
269.678	5.56
270.051	5.53
270.425	5.51
270.799	5.51
271.172	5.51
271.546	5.51
271.919	5.52
272.293	5.5
272.666	5.51
273.04	5.52
273.413	5.47
273.787	5.46
274.16	5.47
274.533	5.49
274.906	5.48
275.279	5.5
275.653	5.5
276.026	5.49
276.399	5.44
276.772	5.44
277.145	5.45
277.518	5.47
277.891	5.49
278.263	5.52
278.636	5.51
279.009	5.54
279.382	5.53
279.755	5.5
280.127	5.53
280.5	5.53
280.872	5.52
281.245	5.63
281.617	5.67
281.99	5.7
282.362	5.74
282.735	5.74
283.107	5.75
283.479	5.78
283.852	5.81
284.224	5.84
284.596	5.84
284.968	5.75
285.34	5.76
285.713	5.78
286.085	5.73
286.457	5.77
286.829	5.77
287.201	5.79
287.572	5.86
287.944	5.89
288.316	5.95
288.688	6.01
289.06	6.04
289.431	6.07
289.803	6.11
290.175	6.16
290.546	6.2
290.918	6.26
291.289	6.28
291.661	6.33
292.032	6.34
292.403	6.41
292.775	6.53
293.146	6.58
293.517	6.63
293.889	6.76
294.26	6.8
294.631	6.86
295.002	6.95
295.373	7
295.744	7.05
296.115	7.1
296.486	7.09
296.857	7.14
297.228	7.19
297.599	7.23
297.97	7.27
298.34	7.33
298.711	7.34
299.082	7.38
299.452	7.47
299.823	7.56
300.194	7.63
300.564	7.68
300.935	7.74
301.305	7.79
301.676	7.83
302.046	7.89
302.416	7.96
302.787	8.04
303.157	8.04
303.527	8.11
303.897	8.18
304.267	8.25
304.637	8.33
305.008	8.42
305.378	8.49
305.748	8.56
306.117	8.69
306.487	8.81
306.857	8.93
307.227	8.99
307.597	9.04
307.967	9.11
308.336	9.18
308.706	9.25
309.076	9.31
309.445	9.36
309.815	9.32
310.184	9.38
310.554	9.4
310.923	9.5
311.293	9.57
311.662	9.63
312.031	9.66
312.401	9.7
312.77	9.74
313.139	9.79
313.508	9.87
313.877	9.86
314.246	9.9
314.616	9.9
314.985	9.9
315.353	9.96
315.722	10
316.091	10.06
316.46	10.12
316.829	10.19
317.198	10.26
317.567	10.43
317.935	10.47
318.304	10.57
318.672	10.66
319.041	10.72
319.41	10.8
319.778	10.88
320.147	10.94
320.515	10.99
320.883	11.03
321.252	11.02
321.62	11.1
321.988	11.14
322.357	11.19
322.725	11.29
323.093	11.32
323.461	11.36
323.829	11.4
324.197	11.43
324.565	11.46
324.933	11.5
325.301	11.52
325.669	11.54
326.037	11.56
326.405	11.54
326.772	11.57
327.14	11.61
327.508	11.65
327.875	11.68
328.243	11.71
328.61	11.69
328.978	11.74
329.346	11.78
329.713	11.8
330.08	11.84
330.448	11.86
330.815	11.86
331.182	11.89
331.55	11.9
331.917	11.93
332.284	11.96
332.651	12
333.018	12.03
333.385	12.07
333.752	12.1
334.119	12.15
334.486	12.18
334.853	12.18
335.22	12.21
335.587	12.25
335.954	12.29
336.32	12.34
336.687	12.36
337.054	12.39
337.42	12.45
337.787	12.48
338.153	12.54
338.52	12.61
338.886	12.68
339.253	12.7
339.619	12.72
339.986	12.73
340.352	12.75
340.718	12.8
341.084	12.84
341.451	12.86
341.817	12.88
342.183	12.89
342.549	12.94
342.915	12.96
343.281	13
343.647	13.04
344.013	13.08
344.379	13.11
344.745	13.12
345.11	13.15
345.476	13.18
345.842	13.2
346.208	13.21
346.573	13.22
346.939	13.25
347.304	13.28
347.67	13.3
348.035	13.34
348.401	13.35
348.766	13.39
349.132	13.41
349.497	13.44
349.862	13.47
350.228	13.49
350.593	13.51
350.958	13.51
351.323	13.51
351.688	13.55
352.053	13.56
352.418	13.57
352.783	13.58
353.148	13.58
353.513	13.57
353.878	13.57
354.243	13.58
354.608	13.57
354.972	13.59
355.337	13.6
355.702	13.58
356.066	13.59
356.431	13.59
356.795	13.61
357.16	13.59
357.524	13.58
357.889	13.59
358.253	13.59
358.618	13.59
358.982	13.59
359.346	13.59
359.71	13.6
360.075	13.61
360.439	13.61
360.803	13.6
361.167	13.59
361.531	13.6
361.895	13.6
362.259	13.58
362.623	13.57
362.987	13.56
363.351	13.55
363.714	13.53
364.078	13.51
364.442	13.5
364.806	13.5
365.169	13.47
365.533	13.44
365.896	13.42
366.26	13.41
366.623	13.37
366.987	13.34
367.35	13.31
367.714	13.28
368.077	13.26
368.44	13.22
368.803	13.19
369.167	13.15
369.53	13.12
369.893	13.09
370.256	13.05
370.619	13.03
370.982	12.99
371.345	12.94
371.708	12.88
372.071	12.84
372.434	12.79
372.797	12.75
373.159	12.72
373.522	12.67
373.885	12.62
374.247	12.55
374.61	12.5
374.973	12.44
375.335	12.38
375.698	12.34
376.06	12.29
376.423	12.23
376.785	12.17
377.147	12.12
377.51	12.07
377.872	12.01
378.234	11.97
378.596	11.93
378.958	11.88
379.321	11.83
379.683	11.78
380.045	11.72
380.407	11.67
380.769	11.61
381.13	11.57
381.492	11.52
381.854	11.47
382.216	11.42
382.578	11.38
382.939	11.34
383.301	11.29
383.663	11.24
384.024	11.19
384.386	11.15
384.747	11.09
385.109	11.03
385.47	10.98
385.832	10.94
386.193	10.88
386.554	10.83
386.916	10.79
387.277	10.74
387.638	10.71
387.999	10.66
388.36	10.62
388.721	10.57
389.082	10.53
389.443	10.48
389.804	10.43
390.165	10.4
390.526	10.34
390.887	10.3
391.248	10.25
391.609	10.21
391.969	10.16
392.33	10.12
392.691	10.07
393.051	10.02
393.412	9.96
393.772	9.92
394.133	9.88
394.493	9.82
394.854	9.78
395.214	9.72
395.574	9.67
395.935	9.62
396.295	9.57
396.655	9.52
397.015	9.47
397.376	9.41
397.736	9.36
398.096	9.31
398.456	9.27
398.816	9.23
399.176	9.17
399.535	9.13
399.895	9.08
400.255	9.04
400.615	8.99
400.975	8.95
401.334	8.91
401.694	8.87
402.054	8.82
402.413	8.77
402.773	8.73
403.132	8.7
403.492	8.67
403.851	8.64
404.211	8.61
404.57	8.59
404.929	8.56
405.288	8.53
405.648	8.51
406.007	8.49
406.366	8.47
406.725	8.45
407.084	8.42
407.443	8.4
407.802	8.37
408.161	8.34
408.52	8.31
408.879	8.3
409.238	8.27
409.596	8.25
409.955	8.24
410.314	8.22
410.673	8.19
411.031	8.18
411.39	8.16
411.748	8.15
412.107	8.13
412.465	8.13
412.824	8.14
413.182	8.14
413.54	8.15
413.899	8.17
414.257	8.2
414.615	8.24
414.974	8.27
415.332	8.31
415.69	8.36
416.048	8.38
416.406	8.43
416.764	8.46
417.122	8.48
417.48	8.52
417.838	8.54
418.195	8.56
418.553	8.57
418.911	8.57
419.269	8.55
419.626	8.53
419.984	8.49
420.342	8.44
420.699	8.4
421.057	8.34
421.414	8.29
421.772	8.25
422.129	8.22
422.486	8.2
422.844	8.17
423.201	8.16
423.558	8.14
423.915	8.12
424.273	8.1
424.63	8.08
424.987	8.06
425.344	8.05
425.701	8.03
426.058	8.02
426.415	8
426.772	7.98
427.128	7.96
427.485	7.93
427.842	7.9
428.199	7.86
428.555	7.82
428.912	7.77
429.269	7.71
429.625	7.67
429.982	7.61
430.338	7.55
430.695	7.5
431.051	7.44
431.407	7.4
431.764	7.36
432.12	7.32
432.476	7.3
432.832	7.28
433.189	7.29
433.545	7.29
433.901	7.31
434.257	7.35
434.613	7.39
434.969	7.43
435.325	7.47
435.681	7.54
436.036	7.57
436.392	7.6
436.748	7.61
437.104	7.62
437.459	7.65
437.815	7.68
438.171	7.71
438.526	7.74
438.882	7.79
439.237	7.84
439.593	7.9
439.948	7.94
440.304	7.99
440.659	8.03
441.014	8.06
441.369	8.1
441.725	8.11
442.08	8.14
442.435	8.14
442.79	8.15
443.145	8.14
443.5	8.14
443.855	8.12
444.21	8.11
444.565	8.09
444.92	8.07
445.275	8.05
445.629	8.02
445.984	7.99
446.339	7.97
446.693	7.94
447.048	7.9
447.403	7.87
447.757	7.81
448.112	7.76
448.466	7.71
448.82	7.66
449.175	7.61
449.529	7.58
449.883	7.54
450.238	7.49
450.592	7.47
450.946	7.46
451.3	7.45
451.654	7.45
452.008	7.44
452.362	7.44
452.716	7.44
453.07	7.43
453.424	7.42
453.778	7.4
454.132	7.37
454.486	7.35
454.839	7.32
455.193	7.28
455.547	7.25
455.9	7.2
456.254	7.17
456.607	7.12
456.961	7.08
457.314	7.05
457.668	7.04
458.021	7.04
458.375	7.04
458.728	7.05
459.081	7.06
459.434	7.09
459.787	7.11
460.141	7.13
460.494	7.15
460.847	7.17
461.2	7.19
461.553	7.22
461.906	7.24
462.259	7.27
462.611	7.29
462.964	7.31
463.317	7.34
463.67	7.36
464.022	7.39
464.375	7.41
464.728	7.43
465.08	7.45
465.433	7.47
465.785	7.49
466.138	7.49
466.49	7.48
466.843	7.46
467.195	7.46
467.547	7.44
467.899	7.43
468.252	7.4
468.604	7.38
468.956	7.36
469.308	7.36
469.66	7.37
470.012	7.37
470.364	7.4
470.716	7.42
471.068	7.46
471.42	7.51
471.772	7.55
472.123	7.58
472.475	7.61
472.827	7.63
473.178	7.65
473.53	7.66
473.882	7.69
474.233	7.72
474.585	7.79
474.936	7.89
475.288	8.04
475.639	8.24
475.99	8.48
476.342	8.73
476.693	9.01
477.044	9.29
477.395	9.57
477.746	9.87
478.097	10.15
478.448	10.45
478.8	10.74
479.15	11
479.501	11.25
479.852	11.46
480.203	11.67
480.554	11.86
480.905	12.05
481.255	12.23
481.606	12.41
481.957	12.56
482.307	12.71
482.658	12.86
483.009	13
483.359	13.14
483.709	13.27
484.06	13.4
484.41	13.53
484.761	13.65
485.111	13.77
485.461	13.88
485.811	13.99
486.162	14.09
486.512	14.17
486.862	14.24
487.212	14.29
487.562	14.33
487.912	14.36
488.262	14.38
488.612	14.38
488.961	14.36
489.311	14.31
489.661	14.2
490.011	14.06
490.36	13.9
490.71	13.7
491.06	13.49
491.409	13.27
491.759	13.04
492.108	12.8
492.458	12.56
492.807	12.3
493.157	12.05
493.506	11.82
493.855	11.6
494.204	11.4
494.554	11.22
494.903	11.06
495.252	10.91
495.601	10.76
495.95	10.63
496.299	10.52
496.648	10.43
496.997	10.34
497.346	10.26
497.695	10.19
498.043	10.14
498.392	10.09
498.741	10.05
499.09	10.01
499.438	10
499.787	9.99
500.135	10
500.484	10.04
500.832	10.1
501.181	10.18
501.529	10.29
501.878	10.42
502.226	10.57
502.574	10.74
502.923	10.92
503.271	11.1
503.619	11.3
503.967	11.5
504.315	11.71
504.663	11.91
505.011	12.12
505.359	12.34
505.707	12.56
506.055	12.79
506.403	13.03
506.751	13.28
507.098	13.53
507.446	13.8
507.794	14.07
508.141	14.36
508.489	14.67
508.837	14.98
509.184	15.28
509.531	15.59
509.879	15.92
510.226	16.26
510.574	16.61
510.921	16.97
511.268	17.34
511.616	17.72
511.963	18.12
512.31	18.51
512.657	18.9
513.004	19.28
513.351	19.65
513.698	19.99
514.045	20.32
514.392	20.63
514.739	20.92
515.086	21.19
515.432	21.47
515.779	21.75
516.126	22.05
516.473	22.36
516.819	22.69
517.166	23.04
517.512	23.42
517.859	23.82
518.205	24.24
518.552	24.71
518.898	25.22
519.245	25.79
519.591	26.47
519.937	27.28
520.283	28.2
520.629	29.19
520.976	30.24
521.322	31.31
521.668	32.41
522.014	33.49
522.36	34.57
522.706	35.62
523.052	36.65
523.398	37.63
523.743	38.53
524.089	39.34
524.435	40.1
524.781	40.83
525.126	41.54
525.472	42.24
525.817	42.92
526.163	43.58
526.509	44.21
526.854	44.84
527.199	45.47
527.545	46.09
527.89	46.75
528.235	47.38
528.581	47.99
528.926	48.56
529.271	49.1
529.616	49.6
529.961	50.05
530.306	50.46
530.651	50.85
530.996	51.2
531.341	51.51
531.686	51.8
532.031	52.06
532.376	52.36
532.721	52.68
533.065	53.03
533.41	53.39
533.755	53.68
534.099	53.89
534.444	54.05
534.788	54.16
535.133	54.23
535.477	54.26
535.822	54.24
536.166	54.17
536.51	54.02
536.855	53.79
537.199	53.52
537.543	53.24
537.887	53.02
538.231	52.85
538.576	52.7
538.92	52.53
539.264	52.35
539.608	52.13
539.951	51.9
540.295	51.64
540.639	51.38
540.983	51.08
541.327	50.78
541.671	50.49
542.014	50.21
542.358	49.97
542.701	49.87
543.045	49.83
543.389	49.84
543.732	49.87
544.075	49.94
544.419	50.03
544.762	50.12
545.105	50.23
545.449	50.37
545.792	50.52
546.135	50.66
546.478	50.73
546.821	50.74
547.165	50.65
547.508	50.49
547.851	50.26
548.194	49.96
548.536	49.6
548.879	49.2
549.222	48.77
549.565	48.32
549.908	47.88
550.25	47.48
550.593	47.16
550.936	46.94
551.278	46.8
551.621	46.7
551.963	46.65
552.306	46.62
552.648	46.64
552.991	46.69
553.333	46.77
553.675	46.9
554.017	47.07
554.36	47.27
554.702	47.51
555.044	47.8
555.386	48.16
555.728	48.49
556.07	48.79
556.412	49.09
556.754	49.26
557.096	49.4
557.438	49.55
557.78	49.7
558.121	49.85
558.463	50.01
558.805	50.16
559.147	50.31
559.488	50.46
559.83	50.61
560.171	50.75
560.513	50.9
560.854	51.04
561.196	51.18
561.537	51.31
561.878	51.44
562.22	51.57
562.561	51.69
562.902	51.81
563.243	51.94
563.584	52.07
563.925	52.19
564.266	52.31
564.607	52.43
564.948	52.55
565.289	52.67
565.63	52.81
565.971	52.93
566.312	53.03
566.653	53.14
566.993	53.24
567.334	53.34
567.675	53.44
568.015	53.55
568.356	53.64
568.696	53.74
569.037	53.83
569.377	53.91
569.718	53.99
570.058	54.07
570.398	54.14
570.739	54.21
571.079	54.29
571.419	54.35
571.759	54.42
572.099	54.47
572.439	54.52
572.779	54.58
573.119	54.63
573.459	54.67
573.799	54.72
574.139	54.77
574.479	54.82
574.819	54.86
575.158	54.91
575.498	54.96
575.838	55
576.177	55.05
576.517	55.1
576.856	55.15
577.196	55.19
577.535	55.23
577.875	55.27
578.214	55.31
578.553	55.35
578.893	55.37
579.232	55.41
579.571	55.42
579.91	55.44
580.25	55.48
580.589	55.51
580.928	55.54
581.267	55.56
581.606	55.59
581.945	55.62
582.283	55.67
582.622	55.72
582.961	55.77
583.3	55.81
583.639	55.86
583.977	55.9
584.316	55.95
584.654	56
584.993	56.04
585.332	56.08
585.67	56.12
586.008	56.16
586.347	56.22
586.685	56.25
587.024	56.31
587.362	56.37
587.7	56.43
588.038	56.49
588.376	56.57
588.715	56.63
589.053	56.7
589.391	56.74
589.729	56.8
590.067	56.86
590.404	56.92
590.742	56.98
591.08	57.04
591.418	57.1
591.756	57.14
592.093	57.19
592.431	57.24
592.769	57.29
593.106	57.33
593.444	57.37
593.781	57.4
594.119	57.43
594.456	57.46
594.793	57.49
595.131	57.54
595.468	57.59
595.805	57.65
596.143	57.68
596.48	57.71
596.817	57.73
597.154	57.77
597.491	57.82
597.828	57.87
598.165	57.92
598.502	57.97
598.839	58.02
599.176	58.04
599.512	58.08
599.849	58.12
600.186	58.17
600.523	58.2
600.859	58.23
601.196	58.25
601.532	58.28
601.869	58.3
602.205	58.32
602.542	58.34
602.878	58.36
603.215	58.39
603.551	58.41
603.887	58.41
604.223	58.44
604.56	58.45
604.896	58.47
605.232	58.48
605.568	58.51
605.904	58.53
606.24	58.54
606.576	58.55
606.912	58.58
607.248	58.59
607.583	58.61
607.919	58.63
608.255	58.64
608.591	58.66
608.926	58.67
609.262	58.67
609.597	58.66
609.933	58.67
610.268	58.69
610.604	58.71
610.939	58.72
611.275	58.71
611.61	58.72
611.945	58.71
612.281	58.71
612.616	58.71
612.951	58.72
613.286	58.73
613.621	58.74
613.956	58.74
614.291	58.74
614.626	58.74
614.961	58.75
615.296	58.75
615.631	58.76
615.966	58.77
616.3	58.77
616.635	58.78
616.97	58.79
617.304	58.8
617.639	58.82
617.973	58.83
618.308	58.84
618.642	58.85
618.977	58.87
619.311	58.89
619.646	58.91
619.98	58.94
620.314	58.97
620.648	58.99
620.983	59.02
621.317	59.05
621.651	59.06
621.985	59.1
622.319	59.12
622.653	59.14
622.987	59.17
623.321	59.18
623.655	59.19
623.988	59.21
624.322	59.24
624.656	59.25
624.99	59.25
625.323	59.26
625.657	59.28
625.99	59.31
626.324	59.33
626.657	59.35
626.991	59.37
627.324	59.37
627.658	59.39
627.991	59.4
628.324	59.42
628.657	59.44
628.991	59.46
629.324	59.47
629.657	59.49
629.99	59.51
630.323	59.51
630.656	59.51
630.989	59.53
631.322	59.54
631.655	59.55
631.987	59.57
632.32	59.57
632.653	59.58
632.986	59.59
633.318	59.59
633.651	59.6
633.984	59.6
634.316	59.62
634.649	59.62
634.981	59.64
635.313	59.65
635.646	59.67
635.978	59.67
636.31	59.69
636.643	59.71
636.975	59.72
637.307	59.74
637.639	59.75
637.971	59.76
638.303	59.79
638.635	59.81
638.967	59.84
639.299	59.84
639.631	59.86
639.963	59.85
640.295	59.86
640.626	59.87
640.958	59.89
641.29	59.9
641.621	59.92
641.953	59.94
642.285	59.95
642.616	59.97
642.948	59.98
643.279	60.01
643.61	60.02
643.942	60.02
644.273	60.03
644.604	60.04
644.936	60.06
645.267	60.07
645.598	60.09
645.929	60.1
646.26	60.11
646.591	60.11
646.922	60.14
647.253	60.16
647.584	60.16
647.915	60.19
648.245	60.21
648.576	60.22
648.907	60.24
649.238	60.23
649.568	60.25
649.899	60.27
650.229	60.27
650.56	60.3
650.89	60.32
651.221	60.33
651.551	60.35
651.882	60.35
652.212	60.38
652.542	60.39
652.872	60.41
653.203	60.43
653.533	60.46
653.863	60.48
654.193	60.49
654.523	60.49
654.853	60.5
655.183	60.5
655.513	60.52
655.843	60.55
656.172	60.56
656.502	60.56
656.832	60.56
657.162	60.56
657.491	60.6
657.821	60.62
658.15	60.62
658.48	60.63
658.809	60.64
659.139	60.66
659.468	60.68
659.798	60.7
660.127	60.72
660.456	60.75
660.785	60.75
661.115	60.77
661.444	60.78
661.773	60.79
662.102	60.81
662.431	60.83
662.76	60.85
663.089	60.83
663.418	60.83
663.747	60.84
664.076	60.83
664.404	60.86
664.733	60.88
665.062	60.89
665.39	60.9
665.719	60.91
666.048	60.91
666.376	60.92
666.705	60.93
667.033	60.93
667.362	60.93
667.69	60.93
668.018	60.97
668.347	60.99
668.675	60.99
669.003	61.01
669.331	61.02
669.659	61.03
669.987	61.04
670.315	61.05
670.643	61.07
670.971	61.07
671.299	61.09
671.627	61.1
671.955	61.12
672.283	61.14
672.61	61.16
672.938	61.19
673.266	61.21
673.593	61.21
673.921	61.22
674.249	61.24
674.576	61.25
674.904	61.26
675.231	61.28
675.558	61.29
675.886	61.31
676.213	61.34
676.54	61.36
676.867	61.37
677.195	61.37
677.522	61.4
677.849	61.4
678.176	61.38
678.503	61.39
678.83	61.42
679.157	61.43
679.484	61.44
679.81	61.45
680.137	61.46
680.464	61.48
680.791	61.47
681.117	61.49
681.444	61.48
681.771	61.47
682.097	61.5
682.424	61.53
682.75	61.51
683.077	61.52
683.403	61.53
683.729	61.54
684.056	61.54
684.382	61.55
684.708	61.55
685.034	61.57
685.36	61.57
685.686	61.57
686.012	61.57
686.339	61.57
686.664	61.58
686.99	61.57
687.316	61.57
687.642	61.59
687.968	61.61
688.294	61.61
688.619	61.6
688.945	61.6
689.271	61.61
689.596	61.6
689.922	61.63
690.247	61.62
690.573	61.65
690.898	61.67
691.224	61.68
691.549	61.71
691.874	61.72
692.2	61.71
692.525	61.73
692.85	61.72
693.175	61.73
693.5	61.77
693.825	61.77
694.15	61.79
694.475	61.78
694.8	61.8
695.125	61.81
695.45	61.82
695.775	61.79
696.099	61.81
696.424	61.83
696.749	61.84
697.073	61.85
697.398	61.85
697.723	61.86
698.047	61.86
698.372	61.88
698.696	61.9
699.02	61.91
699.345	61.92
699.669	61.93
699.993	61.93
700.318	61.96
700.642	61.95
700.966	61.94
701.29	61.94
701.614	61.96
701.938	61.98
702.262	61.99
702.586	61.98
702.91	62
703.234	62
703.557	62.03
703.881	62.05
704.205	62.05
704.529	62.07
704.852	62.07
705.176	62.07
705.499	62.1
705.823	62.1
706.146	62.12
706.47	62.11
706.793	62.08
707.117	62.12
707.44	62.14
707.763	62.16
708.086	62.15
708.409	62.16
708.733	62.15
709.056	62.17
709.379	62.16
709.702	62.18
710.025	62.2
710.348	62.15
710.671	62.16
710.993	62.16
711.316	62.17
711.639	62.18
711.962	62.17
712.284	62.17
712.607	62.2
712.93	62.22
713.252	62.25
713.575	62.23
713.897	62.26
714.22	62.29
714.542	62.32
714.864	62.35
715.187	62.39
715.509	62.41
715.831	62.41
716.153	62.43
716.475	62.43
716.798	62.44
717.12	62.5
717.442	62.54
717.764	62.54
718.085	62.52
718.407	62.51
718.729	62.5
719.051	62.51
719.373	62.52
719.695	62.55
720.016	62.61
720.338	62.59
720.659	62.62
720.981	62.62
721.302	62.65
721.624	62.68
721.945	62.71
722.267	62.7
722.588	62.72
722.909	62.74
723.231	62.76
723.552	62.77
723.873	62.79
724.194	62.81
724.515	62.86
724.836	62.89
725.157	62.86
725.478	62.86
725.799	62.87
726.12	62.86
726.441	62.84
726.762	62.89
727.083	62.89
727.403	62.88
727.724	62.86
728.045	62.81
728.365	62.82
728.686	62.86
729.006	62.86
729.327	62.85
729.647	62.86
729.967	62.84
730.288	62.86
730.608	62.86
730.928	62.86
731.249	62.87
731.569	62.91
731.889	62.92
732.209	62.94
732.529	62.96
732.849	62.95
733.169	62.91
733.489	62.91
733.809	62.93
734.129	62.94
734.448	62.95
734.768	62.94
735.088	62.93
735.408	62.96
735.727	62.95
736.047	62.96
736.366	62.96
736.686	62.96
737.005	62.94
737.325	62.92
737.644	62.88
737.963	62.87
738.283	62.89
738.602	62.88
738.921	62.86
739.24	62.87
739.56	62.85
739.879	62.83
740.198	62.82
740.517	62.83
740.836	62.81
741.155	62.8
741.473	62.78
741.792	62.75
742.111	62.75
742.43	62.79
742.748	62.76
743.067	62.76
743.386	62.72
743.704	62.71
744.023	62.72
744.341	62.69
744.66	62.68
744.978	62.64
745.297	62.61
745.615	62.56
745.933	62.57
746.252	62.57
746.57	62.54
746.888	62.53
747.206	62.5
747.524	62.51
747.842	62.53
748.16	62.54
748.478	62.55
748.796	62.55
749.114	62.52
749.432	62.54
749.749	62.54
750.067	62.53
750.385	62.54
750.703	62.55
751.02	62.58
751.338	62.61
751.655	62.65
751.973	62.66
752.29	62.65
752.608	62.68
752.925	62.69
753.242	62.73
753.56	62.72
753.877	62.74
754.194	62.8
754.511	62.81
754.828	62.82
755.145	62.83
755.462	62.81
755.779	62.85
756.096	62.89
756.413	62.93
756.73	62.96
757.047	62.98
757.364	63.02
757.68	63.06
757.997	63.08
758.314	63.15
758.63	63.21
758.947	63.27
759.264	63.29
759.58	63.29
759.896	63.27
760.213	63.29
760.529	63.29
760.846	63.27
761.162	63.28
761.478	63.27
761.794	63.26
762.11	63.25
762.426	63.23
762.743	63.22
763.059	63.3
763.375	63.32
763.69	63.33
764.006	63.34
764.322	63.34
764.638	63.33
764.954	63.36
765.27	63.37
765.585	63.36
765.901	63.36
766.216	63.3
766.532	63.28
766.848	63.27
767.163	63.28
767.478	63.29
767.794	63.34
768.109	63.34
768.424	63.37
768.74	63.35
769.055	63.34
769.37	63.3
769.685	63.24
770	63.25
770.315	63.27
770.63	63.25
770.945	63.24
771.26	63.2
771.575	63.16
771.89	63.14
772.205	63.17
772.52	63.14
772.834	63.22
773.149	63.22
773.464	63.17
773.778	63.15
774.093	63.15
774.407	63.14
774.722	63.21
775.036	63.23
775.351	63.23
775.665	63.22
775.979	63.15
776.293	63.12
776.608	63.12
776.922	63.06
777.236	63.1
777.55	63.11
777.864	63.08
778.178	63.04
778.492	63.07
778.806	63.1
779.12	63.1
779.434	63.13
779.747	63.1
780.061	63.17
780.375	63.17
780.689	63.07
781.002	63.07
781.316	63.07
781.629	63.07
781.943	63.1
782.256	63.13
782.57	63.17
782.883	63.17
783.196	63.11
783.51	63.09
783.823	63.14
784.136	63.09
784.449	63.07
784.762	63.06
785.075	63.01
785.388	63.01
785.701	62.99
786.014	62.98
786.327	63.02
786.64	62.98
786.953	62.98
787.266	63.01
787.578	62.93
787.891	62.93
788.204	62.93
788.516	62.92
788.829	62.88
789.141	62.86
789.454	62.86
789.766	62.86
790.079	62.88
790.391	62.9
790.703	62.95
791.016	62.97
791.328	62.91
791.64	62.96
791.952	62.98
792.264	63
792.576	63.02
792.888	63.02
793.2	62.93
793.512	62.95
793.824	62.91
794.136	62.87
794.448	62.95
794.76	62.96
795.071	63
795.383	63.01
795.695	63.02
796.006	63.05
796.318	63.01
796.629	62.98
796.941	62.93
797.252	62.94
797.564	62.92
797.875	62.9
798.186	62.9
798.497	62.91
798.809	62.84
799.12	62.79
799.431	62.8
799.742	62.8
800.053	62.79
800.364	62.79
800.675	62.82
800.986	62.87
801.297	62.95
801.608	62.94
801.918	62.89
802.229	62.92
802.54	62.99
802.851	62.92
803.161	62.91
803.472	62.91
803.782	62.86
804.093	62.92
804.403	62.78
804.714	62.8
805.024	62.78
805.334	62.89
805.645	62.87
805.955	62.99
806.265	62.98
806.575	62.99
806.885	62.95
807.195	62.94
807.505	62.88
807.815	62.86
808.125	62.87
808.435	62.85
808.745	62.85
809.055	62.92
809.365	62.95
809.674	63.01
809.984	63.05
810.294	63.09
810.603	63.12
810.913	63.19
811.222	63.15
811.532	63.21
811.841	63.27
812.151	63.3
812.46	63.28
812.769	63.26
813.079	63.36
813.388	63.35
813.697	63.29
814.006	63.24
814.315	63.33
814.624	63.41
814.933	63.4
815.242	63.43
815.551	63.51
815.86	63.52
816.169	63.53
816.478	63.57
816.786	63.63
817.095	63.72
817.404	63.77
817.712	63.82
818.021	63.75
818.33	63.81
818.638	63.79
818.947	63.86
819.255	63.87
819.563	63.9
819.872	63.87
820.18	63.93
820.488	63.95
820.796	63.99
821.105	63.99
821.413	64
821.721	64.03
822.029	64.09
822.337	64.11
822.645	64.12
822.953	64.12
823.26	64.13
823.568	64.13
823.876	64.11
824.184	64.1
824.491	64.1
824.799	64.12
825.107	64.13
825.414	64.14
825.722	64.14
826.029	64.16
826.337	64.18
826.644	64.17
826.951	64.19
827.259	64.23
827.566	64.25
827.873	64.23
828.18	64.21
828.488	64.22
828.795	64.23
829.102	64.25
829.409	64.25
829.716	64.25
830.023	64.28
830.329	64.28
830.636	64.3
830.943	64.31
831.25	64.35
831.557	64.33
831.863	64.33
832.17	64.34
832.476	64.34
832.783	64.3
833.089	64.3
833.396	64.26
833.702	64.25
834.009	64.21
834.315	64.17
834.621	64.09
834.928	64.07
835.234	64.05
835.54	64.03
835.846	64.03
836.152	64.03
836.458	64.08
836.764	64.07
837.07	64.06
837.376	64.02
837.682	64.01
837.988	64.01
838.293	63.91
838.599	63.88
838.905	63.86
839.211	63.9
839.516	63.84
839.822	63.76
840.127	63.7
840.433	63.75
840.738	63.79
841.044	63.8
841.349	63.81
841.654	63.84
841.959	63.79
842.265	63.7
842.57	63.66
842.875	63.6
843.18	63.58
843.485	63.58
843.79	63.56
844.095	63.65
844.4	63.57
844.705	63.64
845.01	63.81
845.315	63.83
845.619	63.76
845.924	63.68
846.229	63.7
846.533	63.77
846.838	63.8
847.142	63.64
847.447	63.77
847.751	63.6
848.056	63.7
848.36	63.61
848.664	63.51
848.969	63.5
849.273	63.37
849.577	63.23
849.881	63.05
850.185	63.06
850.489	63.16
850.794	63.35
851.097	63.26
851.401	63.16
851.705	63.3
852.009	63.24
852.313	63.29
852.617	63.22
852.92	63.11
853.224	62.93
853.528	62.74
853.831	62.65
854.135	62.41
854.438	62.39
854.742	62.42
855.045	62.18
855.349	62.28
855.652	62.36
855.955	62.37
856.259	62.38
856.562	62.44
856.865	62.31
857.168	62.27
857.471	62.31
857.774	62.31
858.077	62.3
858.38	62.16
858.683	62.2
858.986	62.09
859.289	62.2
859.592	62.37
859.894	62.24
860.197	62.44
860.5	62.23
860.802	62.4
861.105	62.36
861.407	62.42
861.71	62.62
862.012	62.71
862.315	62.69
862.617	62.66
862.919	62.42
863.222	62.37
863.524	62.48
863.826	62.59
864.128	62.51
864.43	62.7
864.732	62.78
865.034	63.05
865.336	63.01
865.638	63.04
865.94	63.03
866.242	63.12
866.544	62.96
866.846	63.29
867.147	63.07
867.449	63.18
867.751	63.34
868.052	63.5
868.354	63.49
868.655	63.62
868.957	63.65
869.258	63.84
869.56	63.93
869.861	63.72
870.162	63.63
870.463	63.55
870.765	63.68
871.066	63.58
871.367	63.39
871.668	63.41
871.969	63.67
872.27	63.81
872.571	63.77
872.872	64.01
873.173	63.9
873.473	64.18
873.774	64.19
874.075	64.14
874.376	64.2
874.676	64.28
874.977	64.18
875.277	64.29
875.578	64.32
875.878	64.23
876.179	64.32
876.479	64.35
876.78	64.25
877.08	64.2
877.38	64.17
877.68	64.27
877.981	64.38
878.281	64.5
878.581	64.43
