Data from UWBM59056_Reflection_00004.txt Node
Date: Sun May 02 13:44:16 EDT 2021
User: vgr7
Spectrometer: USB2G7710
Scans to average: 10
Trigger mode: 4
Integration Time (sec): 1.000000E-1
Electric dark correction enabled: true
Boxcar width: 20
XAxis mode: Wavelengths
Number of Pixels in Spectrum: 2048
>>>>>Begin Spectral Data<<<<<
177.721	110.49
178.105	89.57
178.488	98.47
178.871	143.85
179.254	131.91
179.636	85.94
180.019	61.65
180.402	50.42
180.785	48.78
181.168	48.81
181.55	45.74
181.933	48.97
182.316	46.14
182.698	43.44
183.081	35.96
183.463	31.23
183.846	26.61
184.228	28.78
184.611	25.66
184.993	22.61
185.376	24.79
185.758	26.72
186.14	28.11
186.522	24.44
186.904	25.03
187.287	26.24
187.669	28.08
188.051	23.77
188.433	23.04
188.815	19.96
189.197	21.5
189.579	21.45
189.961	20.01
190.342	18.34
190.724	19.66
191.106	19.42
191.488	20.3
191.869	17
192.251	14.53
192.633	13.15
193.014	12.4
193.396	10.18
193.777	11.25
194.159	11.67
194.54	8.94
194.922	8.14
195.303	7.82
195.684	7.27
196.065	7.2
196.447	5.99
196.828	3.71
197.209	2.31
197.59	-0.44
197.971	-1.45
198.352	-0.18
198.733	1.92
199.114	3.52
199.495	5.13
199.876	4.13
200.257	5.58
200.638	6.22
201.018	5.44
201.399	5.84
201.78	5.65
202.16	5.81
202.541	5.07
202.922	3.26
203.302	3.24
203.683	5.05
204.063	6.68
204.444	6.09
204.824	5.86
205.204	5.05
205.585	4.8
205.965	7.16
206.345	4.96
206.725	5.18
207.106	4.19
207.486	4.28
207.866	5.99
208.246	5.34
208.626	5.66
209.006	5.86
209.386	5.03
209.766	4.72
210.145	4.64
210.525	5.5
210.905	6.3
211.285	5.57
211.664	7.16
212.044	7.25
212.424	7.1
212.803	7.82
213.183	7.64
213.562	8.38
213.942	7.46
214.321	6.65
214.701	4.85
215.08	4.81
215.459	3.27
215.838	2.49
216.218	1.28
216.597	0.11
216.976	-0.14
217.355	-1.1
217.734	-0.79
218.113	-0.89
218.492	-1.48
218.871	-1.58
219.25	-0.58
219.629	-0.35
220.008	-0.95
220.387	-1.24
220.766	0.35
221.144	0.59
221.523	-0.64
221.902	-0.24
222.28	-0.19
222.659	0.5
223.037	1.54
223.416	2.57
223.794	2.45
224.173	2.08
224.551	2.1
224.929	3.32
225.308	3.39
225.686	3.79
226.064	3.47
226.442	2.77
226.821	3.41
227.199	3.42
227.577	3.72
227.955	4.35
228.333	4.31
228.711	4.2
229.089	3.86
229.467	3.95
229.845	4.01
230.222	4.21
230.6	4.22
230.978	4.52
231.356	4.68
231.733	5.03
232.111	5.08
232.488	5.03
232.866	4.8
233.243	4.45
233.621	4.26
233.998	4.46
234.376	4.69
234.753	4.29
235.13	4.15
235.508	4.43
235.885	4.33
236.262	4.2
236.639	4
237.016	3.94
237.393	3.99
237.77	4.07
238.147	3.98
238.524	3.89
238.901	3.69
239.278	3.76
239.655	3.77
240.032	3.77
240.409	3.69
240.785	3.7
241.162	3.69
241.539	3.6
241.915	3.7
242.292	3.73
242.668	3.71
243.045	3.65
243.421	3.56
243.798	3.56
244.174	3.6
244.551	3.62
244.927	3.64
245.303	3.63
245.679	3.64
246.056	3.6
246.432	3.6
246.808	3.59
247.184	3.55
247.56	3.55
247.936	3.55
248.312	3.56
248.688	3.58
249.064	3.58
249.44	3.55
249.815	3.49
250.191	3.46
250.567	3.48
250.943	3.43
251.318	3.39
251.694	3.4
252.069	3.39
252.445	3.39
252.82	3.4
253.196	3.33
253.571	3.32
253.947	3.3
254.322	3.31
254.697	3.28
255.073	3.27
255.448	3.26
255.823	3.24
256.198	3.21
256.573	3.22
256.948	3.24
257.323	3.21
257.698	3.16
258.073	3.13
258.448	3.14
258.823	3.15
259.198	3.12
259.573	3.09
259.948	3.1
260.322	3.06
260.697	3.06
261.072	3.05
261.446	3.05
261.821	3.03
262.195	3.02
262.57	3.01
262.944	3
263.319	2.99
263.693	3
264.067	2.99
264.442	3
264.816	2.98
265.19	2.99
265.564	3
265.938	2.98
266.313	2.99
266.687	3
267.061	2.98
267.435	2.99
267.809	2.97
268.183	2.94
268.556	2.94
268.93	2.96
269.304	2.97
269.678	2.98
270.051	2.97
270.425	2.95
270.799	2.93
271.172	2.95
271.546	2.95
271.919	2.93
272.293	2.92
272.666	2.9
273.04	2.92
273.413	2.94
273.787	2.95
274.16	2.94
274.533	2.97
274.906	2.96
275.279	2.95
275.653	2.96
276.026	2.97
276.399	2.97
276.772	2.98
277.145	2.99
277.518	3.01
277.891	3.03
278.263	3.04
278.636	3.04
279.009	3.02
279.382	3.01
279.755	3.01
280.127	3.03
280.5	3.03
280.872	3.05
281.245	3.03
281.617	3.04
281.99	3.04
282.362	3.04
282.735	3.05
283.107	3.06
283.479	3.06
283.852	3.08
284.224	3.07
284.596	3.05
284.968	3.04
285.34	3.05
285.713	3.06
286.085	3.07
286.457	3.06
286.829	3.06
287.201	3.05
287.572	3.05
287.944	3.05
288.316	3.04
288.688	3.03
289.06	3.03
289.431	3.03
289.803	3.03
290.175	3.05
290.546	3.06
290.918	3.06
291.289	3.05
291.661	3.06
292.032	3.05
292.403	3.05
292.775	3.04
293.146	3.03
293.517	3.03
293.889	3.03
294.26	3.04
294.631	3.05
295.002	3.06
295.373	3.06
295.744	3.05
296.115	3.04
296.486	3.06
296.857	3.06
297.228	3.06
297.599	3.07
297.97	3.07
298.34	3.07
298.711	3.07
299.082	3.05
299.452	3.07
299.823	3.08
300.194	3.08
300.564	3.08
300.935	3.08
301.305	3.09
301.676	3.08
302.046	3.09
302.416	3.1
302.787	3.1
303.157	3.1
303.527	3.09
303.897	3.1
304.267	3.09
304.637	3.09
305.008	3.1
305.378	3.09
305.748	3.08
306.117	3.06
306.487	3.08
306.857	3.09
307.227	3.1
307.597	3.1
307.967	3.09
308.336	3.11
308.706	3.1
309.076	3.09
309.445	3.1
309.815	3.1
310.184	3.08
310.554	3.08
310.923	3.09
311.293	3.09
311.662	3.07
312.031	3.06
312.401	3.06
312.77	3.05
313.139	3.04
313.508	3.05
313.877	3.06
314.246	3.07
314.616	3.06
314.985	3.05
315.353	3.06
315.722	3.04
316.091	3.05
316.46	3.04
316.829	3.03
317.198	3.04
317.567	3.04
317.935	3.04
318.304	3.03
318.672	3.04
319.041	3.04
319.41	3.04
319.778	3.04
320.147	3.03
320.515	3.03
320.883	3.01
321.252	3.01
321.62	3
321.988	2.98
322.357	2.97
322.725	2.97
323.093	2.96
323.461	2.94
323.829	2.94
324.197	2.95
324.565	2.94
324.933	2.94
325.301	2.94
325.669	2.94
326.037	2.92
326.405	2.94
326.772	2.93
327.14	2.94
327.508	2.93
327.875	2.93
328.243	2.93
328.61	2.92
328.978	2.9
329.346	2.89
329.713	2.9
330.08	2.92
330.448	2.91
330.815	2.9
331.182	2.89
331.55	2.9
331.917	2.9
332.284	2.88
332.651	2.88
333.018	2.88
333.385	2.87
333.752	2.86
334.119	2.86
334.486	2.85
334.853	2.85
335.22	2.86
335.587	2.86
335.954	2.87
336.32	2.87
336.687	2.87
337.054	2.86
337.42	2.87
337.787	2.87
338.153	2.89
338.52	2.88
338.886	2.88
339.253	2.87
339.619	2.87
339.986	2.88
340.352	2.89
340.718	2.89
341.084	2.89
341.451	2.9
341.817	2.91
342.183	2.91
342.549	2.92
342.915	2.92
343.281	2.91
343.647	2.93
344.013	2.93
344.379	2.93
344.745	2.92
345.11	2.92
345.476	2.92
345.842	2.93
346.208	2.93
346.573	2.93
346.939	2.92
347.304	2.93
347.67	2.92
348.035	2.94
348.401	2.94
348.766	2.95
349.132	2.95
349.497	2.97
349.862	2.97
350.228	2.96
350.593	2.96
350.958	2.97
351.323	2.98
351.688	2.98
352.053	2.99
352.418	2.99
352.783	2.99
353.148	2.98
353.513	3
353.878	3
354.243	3.01
354.608	3
354.972	3
355.337	3
355.702	3.01
356.066	3.01
356.431	3
356.795	3
357.16	2.99
357.524	2.99
357.889	2.99
358.253	2.99
358.618	2.98
358.982	2.99
359.346	3
359.71	3
360.075	3.01
360.439	3
360.803	3.01
361.167	3.01
361.531	3.01
361.895	3.01
362.259	3
362.623	3
362.987	2.99
363.351	3
363.714	3
364.078	3
364.442	3
364.806	3
365.169	3
365.533	3.01
365.896	3.01
366.26	3.01
366.623	3.01
366.987	3.01
367.35	3
367.714	3.01
368.077	3.01
368.44	3.01
368.803	3.01
369.167	3
369.53	3.01
369.893	3
370.256	3
370.619	3
370.982	3
371.345	3
371.708	3.01
372.071	3.01
372.434	3.02
372.797	3.02
373.159	3.01
373.522	3.02
373.885	3.02
374.247	3.02
374.61	3.02
374.973	3.01
375.335	3.01
375.698	3
376.06	3
376.423	3
376.785	3
377.147	3.01
377.51	3.01
377.872	3.01
378.234	3.01
378.596	3.01
378.958	3.01
379.321	3
379.683	3.01
380.045	3.01
380.407	3.01
380.769	3.01
381.13	3
381.492	3.01
381.854	3.01
382.216	3
382.578	3
382.939	3.01
383.301	3
383.663	3.01
384.024	3
384.386	3.01
384.747	3.01
385.109	3.01
385.47	3.01
385.832	3.01
386.193	3
386.554	3
386.916	3.01
387.277	3
387.638	3.01
387.999	3.01
388.36	3.01
388.721	3.01
389.082	3.01
389.443	3.01
389.804	3.01
390.165	3.01
390.526	3.01
390.887	3.01
391.248	3.01
391.609	3.02
391.969	3.02
392.33	3.02
392.691	3.02
393.051	3.02
393.412	3.02
393.772	3.03
394.133	3.02
394.493	3.02
394.854	3.02
395.214	3.02
395.574	3.02
395.935	3.02
396.295	3.02
396.655	3.02
397.015	3.02
397.376	3.02
397.736	3.02
398.096	3.02
398.456	3.02
398.816	3.03
399.176	3.03
399.535	3.03
399.895	3.03
400.255	3.03
400.615	3.04
400.975	3.04
401.334	3.04
401.694	3.04
402.054	3.04
402.413	3.04
402.773	3.04
403.132	3.04
403.492	3.04
403.851	3.04
404.211	3.05
404.57	3.05
404.929	3.05
405.288	3.06
405.648	3.06
406.007	3.06
406.366	3.06
406.725	3.06
407.084	3.06
407.443	3.06
407.802	3.07
408.161	3.07
408.52	3.07
408.879	3.07
409.238	3.07
409.596	3.08
409.955	3.08
410.314	3.08
410.673	3.09
411.031	3.09
411.39	3.1
411.748	3.1
412.107	3.11
412.465	3.12
412.824	3.13
413.182	3.15
413.54	3.17
413.899	3.19
414.257	3.21
414.615	3.24
414.974	3.26
415.332	3.29
415.69	3.32
416.048	3.34
416.406	3.38
416.764	3.4
417.122	3.42
417.48	3.45
417.838	3.47
418.195	3.49
418.553	3.51
418.911	3.52
419.269	3.53
419.626	3.53
419.984	3.52
420.342	3.52
420.699	3.51
421.057	3.49
421.414	3.48
421.772	3.47
422.129	3.47
422.486	3.47
422.844	3.47
423.201	3.47
423.558	3.47
423.915	3.47
424.273	3.47
424.63	3.47
424.987	3.47
425.344	3.47
425.701	3.47
426.058	3.47
426.415	3.48
426.772	3.47
427.128	3.47
427.485	3.47
427.842	3.46
428.199	3.45
428.555	3.44
428.912	3.43
429.269	3.41
429.625	3.39
429.982	3.38
430.338	3.35
430.695	3.34
431.051	3.31
431.407	3.3
431.764	3.28
432.12	3.27
432.476	3.26
432.832	3.25
433.189	3.25
433.545	3.26
433.901	3.26
434.257	3.28
434.613	3.3
434.969	3.32
435.325	3.34
435.681	3.38
436.036	3.39
436.392	3.41
436.748	3.42
437.104	3.43
437.459	3.44
437.815	3.46
438.171	3.48
438.526	3.49
438.882	3.52
439.237	3.55
439.593	3.57
439.948	3.6
440.304	3.62
440.659	3.65
441.014	3.66
441.369	3.69
441.725	3.7
442.08	3.71
442.435	3.72
442.79	3.73
443.145	3.73
443.5	3.73
443.855	3.73
444.21	3.73
444.565	3.73
444.92	3.72
445.275	3.71
445.629	3.71
445.984	3.7
446.339	3.69
446.693	3.69
447.048	3.67
447.403	3.66
447.757	3.64
448.112	3.63
448.466	3.61
448.82	3.6
449.175	3.58
449.529	3.57
449.883	3.55
450.238	3.54
450.592	3.54
450.946	3.53
451.3	3.53
451.654	3.53
452.008	3.53
452.362	3.54
452.716	3.54
453.07	3.54
453.424	3.54
453.778	3.53
454.132	3.53
454.486	3.52
454.839	3.51
455.193	3.49
455.547	3.48
455.9	3.46
456.254	3.44
456.607	3.42
456.961	3.4
457.314	3.38
457.668	3.38
458.021	3.37
458.375	3.37
458.728	3.37
459.081	3.38
459.434	3.38
459.787	3.39
460.141	3.4
460.494	3.41
460.847	3.42
461.2	3.42
461.553	3.43
461.906	3.43
462.259	3.44
462.611	3.44
462.964	3.45
463.317	3.45
463.67	3.45
464.022	3.46
464.375	3.46
464.728	3.46
465.08	3.46
465.433	3.47
465.785	3.47
466.138	3.45
466.49	3.44
466.843	3.43
467.195	3.41
467.547	3.39
467.899	3.38
468.252	3.35
468.604	3.33
468.956	3.32
469.308	3.3
469.66	3.3
470.012	3.3
470.364	3.3
470.716	3.3
471.068	3.32
471.42	3.33
471.772	3.35
472.123	3.36
472.475	3.36
472.827	3.37
473.178	3.38
473.53	3.38
473.882	3.39
474.233	3.41
474.585	3.44
474.936	3.49
475.288	3.56
475.639	3.65
475.99	3.75
476.342	3.87
476.693	4
477.044	4.13
477.395	4.27
477.746	4.41
478.097	4.55
478.448	4.7
478.8	4.84
479.15	4.97
479.501	5.09
479.852	5.2
480.203	5.31
480.554	5.41
480.905	5.51
481.255	5.59
481.606	5.69
481.957	5.77
482.307	5.85
482.658	5.92
483.009	5.99
483.359	6.06
483.709	6.13
484.06	6.19
484.41	6.25
484.761	6.31
485.111	6.37
485.461	6.42
485.811	6.48
486.162	6.53
486.512	6.57
486.862	6.6
487.212	6.62
487.562	6.64
487.912	6.65
488.262	6.65
488.612	6.65
488.961	6.63
489.311	6.6
489.661	6.55
490.011	6.48
490.36	6.39
490.71	6.29
491.06	6.18
491.409	6.07
491.759	5.95
492.108	5.83
492.458	5.7
492.807	5.56
493.157	5.43
493.506	5.3
493.855	5.18
494.204	5.06
494.554	4.95
494.903	4.85
495.252	4.75
495.601	4.66
495.95	4.57
496.299	4.48
496.648	4.4
496.997	4.33
497.346	4.25
497.695	4.19
498.043	4.11
498.392	4.05
498.741	3.98
499.09	3.92
499.438	3.86
499.787	3.81
500.135	3.76
500.484	3.71
500.832	3.67
501.181	3.64
501.529	3.62
501.878	3.61
502.226	3.6
502.574	3.6
502.923	3.6
503.271	3.59
503.619	3.59
503.967	3.59
504.315	3.59
504.663	3.59
505.011	3.59
505.359	3.59
505.707	3.59
506.055	3.59
506.403	3.58
506.751	3.59
507.098	3.59
507.446	3.6
507.794	3.61
508.141	3.62
508.489	3.63
508.837	3.64
509.184	3.65
509.531	3.66
509.879	3.67
510.226	3.68
510.574	3.69
510.921	3.71
511.268	3.72
511.616	3.74
511.963	3.75
512.31	3.77
512.657	3.79
513.004	3.81
513.351	3.82
513.698	3.83
514.045	3.83
514.392	3.84
514.739	3.84
515.086	3.83
515.432	3.83
515.779	3.82
516.126	3.82
516.473	3.82
516.819	3.83
517.166	3.83
517.512	3.84
517.859	3.85
518.205	3.87
518.552	3.89
518.898	3.91
519.245	3.94
519.591	3.99
519.937	4.05
520.283	4.13
520.629	4.22
520.976	4.31
521.322	4.4
521.668	4.51
522.014	4.61
522.36	4.71
522.706	4.81
523.052	4.9
523.398	4.99
523.743	5.07
524.089	5.14
524.435	5.2
524.781	5.26
525.126	5.31
525.472	5.36
525.817	5.41
526.163	5.45
526.509	5.49
526.854	5.53
527.199	5.57
527.545	5.61
527.89	5.65
528.235	5.69
528.581	5.73
528.926	5.77
529.271	5.8
529.616	5.83
529.961	5.86
530.306	5.89
530.651	5.9
530.996	5.92
531.341	5.93
531.686	5.93
532.031	5.93
532.376	5.94
532.721	5.94
533.065	5.95
533.41	5.95
533.755	5.95
534.099	5.94
534.444	5.92
534.788	5.89
535.133	5.86
535.477	5.82
535.822	5.78
536.166	5.73
536.51	5.67
536.855	5.61
537.199	5.54
537.543	5.48
537.887	5.42
538.231	5.37
538.576	5.32
538.92	5.27
539.264	5.22
539.608	5.17
539.951	5.12
540.295	5.07
540.639	5.01
540.983	4.96
541.327	4.9
541.671	4.85
542.014	4.79
542.358	4.75
542.701	4.71
543.045	4.69
543.389	4.67
543.732	4.65
544.075	4.64
544.419	4.62
544.762	4.61
545.105	4.6
545.449	4.6
545.792	4.59
546.135	4.59
546.478	4.58
546.821	4.56
547.165	4.53
547.508	4.5
547.851	4.46
548.194	4.42
548.536	4.37
548.879	4.31
549.222	4.26
549.565	4.2
549.908	4.14
550.25	4.09
550.593	4.04
550.936	4
551.278	3.97
551.621	3.94
551.963	3.92
552.306	3.9
552.648	3.88
552.991	3.87
553.333	3.86
553.675	3.85
554.017	3.85
554.36	3.85
554.702	3.86
555.044	3.87
555.386	3.89
555.728	3.9
556.07	3.91
556.412	3.93
556.754	3.93
557.096	3.93
557.438	3.93
557.78	3.93
558.121	3.93
558.463	3.93
558.805	3.94
559.147	3.94
559.488	3.94
559.83	3.94
560.171	3.94
560.513	3.94
560.854	3.94
561.196	3.95
561.537	3.95
561.878	3.95
562.22	3.94
562.561	3.94
562.902	3.95
563.243	3.95
563.584	3.95
563.925	3.95
564.266	3.95
564.607	3.96
564.948	3.96
565.289	3.96
565.63	3.96
565.971	3.97
566.312	3.97
566.653	3.97
566.993	3.97
567.334	3.98
567.675	3.98
568.015	3.98
568.356	3.99
568.696	3.99
569.037	3.98
569.377	3.99
569.718	3.99
570.058	3.99
570.398	3.99
570.739	4
571.079	4
571.419	4
571.759	4
572.099	4
572.439	4
572.779	4
573.119	4
573.459	4
573.799	4
574.139	4
574.479	4
574.819	4.01
575.158	4.01
575.498	4.01
575.838	4.01
576.177	4.01
576.517	4.01
576.856	4.01
577.196	4.01
577.535	4.01
577.875	4.01
578.214	4.01
578.553	4.01
578.893	4.01
579.232	4.01
579.571	4.01
579.91	4.01
580.25	4.01
580.589	4.01
580.928	4
581.267	4
581.606	4
581.945	4
582.283	4
582.622	4.01
582.961	4.01
583.3	4.01
583.639	4.01
583.977	4.02
584.316	4.02
584.654	4.02
584.993	4.02
585.332	4.03
585.67	4.03
586.008	4.03
586.347	4.03
586.685	4.03
587.024	4.03
587.362	4.03
587.7	4.03
588.038	4.04
588.376	4.03
588.715	4.04
589.053	4.04
589.391	4.05
589.729	4.05
590.067	4.06
590.404	4.06
590.742	4.07
591.08	4.07
591.418	4.07
591.756	4.07
592.093	4.08
592.431	4.08
592.769	4.08
593.106	4.09
593.444	4.09
593.781	4.09
594.119	4.09
594.456	4.09
594.793	4.09
595.131	4.1
595.468	4.1
595.805	4.1
596.143	4.09
596.48	4.09
596.817	4.09
597.154	4.1
597.491	4.1
597.828	4.1
598.165	4.1
598.502	4.1
598.839	4.1
599.176	4.1
599.512	4.1
599.849	4.1
600.186	4.11
600.523	4.11
600.859	4.11
601.196	4.11
601.532	4.11
601.869	4.12
602.205	4.12
602.542	4.12
602.878	4.12
603.215	4.12
603.551	4.12
603.887	4.12
604.223	4.12
604.56	4.13
604.896	4.13
605.232	4.13
605.568	4.13
605.904	4.13
606.24	4.13
606.576	4.13
606.912	4.13
607.248	4.13
607.583	4.13
607.919	4.13
608.255	4.13
608.591	4.13
608.926	4.13
609.262	4.14
609.597	4.14
609.933	4.14
610.268	4.15
610.604	4.15
610.939	4.14
611.275	4.14
611.61	4.14
611.945	4.15
612.281	4.15
612.616	4.16
612.951	4.15
613.286	4.15
613.621	4.16
613.956	4.16
614.291	4.16
614.626	4.16
614.961	4.17
615.296	4.17
615.631	4.17
615.966	4.17
616.3	4.18
616.635	4.17
616.97	4.18
617.304	4.18
617.639	4.18
617.973	4.18
618.308	4.18
618.642	4.18
618.977	4.18
619.311	4.18
619.646	4.18
619.98	4.19
620.314	4.2
620.648	4.2
620.983	4.21
621.317	4.21
621.651	4.22
621.985	4.22
622.319	4.23
622.653	4.24
622.987	4.24
623.321	4.25
623.655	4.25
623.988	4.26
624.322	4.26
624.656	4.27
624.99	4.27
625.323	4.28
625.657	4.28
625.99	4.28
626.324	4.28
626.657	4.28
626.991	4.29
627.324	4.28
627.658	4.28
627.991	4.28
628.324	4.28
628.657	4.28
628.991	4.29
629.324	4.29
629.657	4.29
629.99	4.3
630.323	4.3
630.656	4.31
630.989	4.31
631.322	4.31
631.655	4.32
631.987	4.33
632.32	4.33
632.653	4.33
632.986	4.34
633.318	4.35
633.651	4.34
633.984	4.35
634.316	4.35
634.649	4.35
634.981	4.35
635.313	4.36
635.646	4.36
635.978	4.36
636.31	4.36
636.643	4.36
636.975	4.37
637.307	4.36
637.639	4.37
637.971	4.38
638.303	4.38
638.635	4.38
638.967	4.37
639.299	4.38
639.631	4.38
639.963	4.38
640.295	4.39
640.626	4.39
640.958	4.4
641.29	4.41
641.621	4.41
641.953	4.41
642.285	4.41
642.616	4.41
642.948	4.41
643.279	4.41
643.61	4.42
643.942	4.42
644.273	4.42
644.604	4.43
644.936	4.43
645.267	4.43
645.598	4.43
645.929	4.43
646.26	4.43
646.591	4.44
646.922	4.43
647.253	4.44
647.584	4.44
647.915	4.44
648.245	4.44
648.576	4.45
648.907	4.45
649.238	4.45
649.568	4.44
649.899	4.44
650.229	4.45
650.56	4.44
650.89	4.45
651.221	4.45
651.551	4.45
651.882	4.45
652.212	4.46
652.542	4.46
652.872	4.47
653.203	4.47
653.533	4.48
653.863	4.48
654.193	4.49
654.523	4.49
654.853	4.49
655.183	4.5
655.513	4.5
655.843	4.51
656.172	4.51
656.502	4.52
656.832	4.52
657.162	4.52
657.491	4.53
657.821	4.53
658.15	4.53
658.48	4.54
658.809	4.54
659.139	4.55
659.468	4.55
659.798	4.56
660.127	4.56
660.456	4.57
660.785	4.58
661.115	4.59
661.444	4.6
661.773	4.61
662.102	4.61
662.431	4.62
662.76	4.63
663.089	4.64
663.418	4.65
663.747	4.66
664.076	4.67
664.404	4.67
664.733	4.68
665.062	4.69
665.39	4.7
665.719	4.71
666.048	4.72
666.376	4.72
666.705	4.73
667.033	4.74
667.362	4.75
667.69	4.75
668.018	4.75
668.347	4.76
668.675	4.78
669.003	4.79
669.331	4.79
669.659	4.79
669.987	4.79
670.315	4.8
670.643	4.8
670.971	4.8
671.299	4.81
671.627	4.81
671.955	4.81
672.283	4.83
672.61	4.82
672.938	4.83
673.266	4.83
673.593	4.84
673.921	4.84
674.249	4.84
674.576	4.83
674.904	4.82
675.231	4.83
675.558	4.82
675.886	4.83
676.213	4.83
676.54	4.82
676.867	4.82
677.195	4.82
677.522	4.82
677.849	4.83
678.176	4.83
678.503	4.84
678.83	4.84
679.157	4.84
679.484	4.84
679.81	4.85
680.137	4.85
680.464	4.86
680.791	4.86
681.117	4.88
681.444	4.89
681.771	4.89
682.097	4.9
682.424	4.89
682.75	4.9
683.077	4.91
683.403	4.91
683.729	4.91
684.056	4.92
684.382	4.92
684.708	4.93
685.034	4.94
685.36	4.95
685.686	4.93
686.012	4.94
686.339	4.94
686.664	4.93
686.99	4.94
687.316	4.94
687.642	4.95
687.968	4.96
688.294	4.97
688.619	4.98
688.945	4.98
689.271	4.98
689.596	4.99
689.922	5
690.247	5.01
690.573	5.02
690.898	5.02
691.224	5.04
691.549	5.04
691.874	5.04
692.2	5.04
692.525	5.05
692.85	5.05
693.175	5.06
693.5	5.08
693.825	5.08
694.15	5.08
694.475	5.08
694.8	5.07
695.125	5.07
695.45	5.07
695.775	5.08
696.099	5.09
696.424	5.09
696.749	5.09
697.073	5.1
697.398	5.1
697.723	5.11
698.047	5.11
698.372	5.11
698.696	5.1
699.02	5.13
699.345	5.13
699.669	5.14
699.993	5.16
700.318	5.16
700.642	5.17
700.966	5.18
701.29	5.17
701.614	5.18
701.938	5.18
702.262	5.19
702.586	5.19
702.91	5.2
703.234	5.2
703.557	5.21
703.881	5.21
704.205	5.21
704.529	5.22
704.852	5.22
705.176	5.22
705.499	5.22
705.823	5.23
706.146	5.23
706.47	5.23
706.793	5.22
707.117	5.24
707.44	5.24
707.763	5.26
708.086	5.27
708.409	5.29
708.733	5.28
709.056	5.28
709.379	5.28
709.702	5.3
710.025	5.3
710.348	5.31
710.671	5.32
710.993	5.3
711.316	5.31
711.639	5.33
711.962	5.35
712.284	5.35
712.607	5.35
712.93	5.34
713.252	5.34
713.575	5.36
713.897	5.36
714.22	5.35
714.542	5.38
714.864	5.38
715.187	5.41
715.509	5.41
715.831	5.4
716.153	5.41
716.475	5.42
716.798	5.41
717.12	5.43
717.442	5.44
717.764	5.44
718.085	5.44
718.407	5.46
718.729	5.47
719.051	5.48
719.373	5.49
719.695	5.48
720.016	5.49
720.338	5.49
720.659	5.48
720.981	5.48
721.302	5.49
721.624	5.47
721.945	5.49
722.267	5.5
722.588	5.52
722.909	5.52
723.231	5.53
723.552	5.52
723.873	5.53
724.194	5.55
724.515	5.54
724.836	5.55
725.157	5.55
725.478	5.56
725.799	5.59
726.12	5.61
726.441	5.62
726.762	5.61
727.083	5.62
727.403	5.61
727.724	5.63
728.045	5.64
728.365	5.64
728.686	5.66
729.006	5.7
729.327	5.7
729.647	5.71
729.967	5.73
730.288	5.74
730.608	5.74
730.928	5.74
731.249	5.76
731.569	5.76
731.889	5.77
732.209	5.77
732.529	5.77
732.849	5.79
733.169	5.8
733.489	5.81
733.809	5.83
734.129	5.85
734.448	5.88
734.768	5.92
735.088	5.93
735.408	5.95
735.727	5.94
736.047	5.96
736.366	5.97
736.686	5.99
737.005	5.99
737.325	6
737.644	6
737.963	5.98
738.283	5.98
738.602	5.98
738.921	5.99
739.24	6
739.56	6.01
739.879	6.02
740.198	6.03
740.517	6.06
740.836	6.06
741.155	6.06
741.473	6.05
741.792	6.05
742.111	6.03
742.43	6.03
742.748	6.03
743.067	6.02
743.386	6.05
743.704	6.08
744.023	6.09
744.341	6.07
744.66	6.08
744.978	6.1
745.297	6.13
745.615	6.17
745.933	6.2
746.252	6.2
746.57	6.2
746.888	6.24
747.206	6.24
747.524	6.21
747.842	6.19
748.16	6.18
748.478	6.2
748.796	6.21
749.114	6.22
749.432	6.24
749.749	6.25
750.067	6.27
750.385	6.28
750.703	6.3
751.02	6.32
751.338	6.34
751.655	6.37
751.973	6.38
752.29	6.38
752.608	6.38
752.925	6.38
753.242	6.39
753.56	6.39
753.877	6.42
754.194	6.43
754.511	6.44
754.828	6.44
755.145	6.48
755.462	6.48
755.779	6.51
756.096	6.52
756.413	6.52
756.73	6.52
757.047	6.51
757.364	6.51
757.68	6.55
757.997	6.54
758.314	6.54
758.63	6.53
758.947	6.51
759.264	6.51
759.58	6.51
759.896	6.5
760.213	6.48
760.529	6.5
760.846	6.52
761.162	6.54
761.478	6.53
761.794	6.55
762.11	6.57
762.426	6.59
762.743	6.59
763.059	6.58
763.375	6.59
763.69	6.62
764.006	6.63
764.322	6.64
764.638	6.65
764.954	6.65
765.27	6.65
765.585	6.67
765.901	6.69
766.216	6.68
766.532	6.68
766.848	6.68
767.163	6.69
767.478	6.69
767.794	6.7
768.109	6.71
768.424	6.72
768.74	6.73
769.055	6.73
769.37	6.7
769.685	6.71
770	6.75
770.315	6.8
770.63	6.79
770.945	6.81
771.26	6.82
771.575	6.85
771.89	6.89
772.205	6.92
772.52	6.94
772.834	6.96
773.149	7.02
773.464	7.05
773.778	7.05
774.093	7.04
774.407	7.06
774.722	7.06
775.036	7.06
775.351	7.07
775.665	7.09
775.979	7.12
776.293	7.14
776.608	7.15
776.922	7.17
777.236	7.17
777.55	7.16
777.864	7.21
778.178	7.21
778.492	7.24
778.806	7.21
779.12	7.24
779.434	7.28
779.747	7.3
780.061	7.27
780.375	7.31
780.689	7.33
781.002	7.32
781.316	7.35
781.629	7.32
781.943	7.34
782.256	7.37
782.57	7.35
782.883	7.32
783.196	7.3
783.51	7.31
783.823	7.3
784.136	7.29
784.449	7.3
784.762	7.31
785.075	7.29
785.388	7.28
785.701	7.28
786.014	7.3
786.327	7.31
786.64	7.31
786.953	7.38
787.266	7.4
787.578	7.41
787.891	7.45
788.204	7.43
788.516	7.44
788.829	7.47
789.141	7.45
789.454	7.46
789.766	7.45
790.079	7.48
790.391	7.47
790.703	7.44
791.016	7.44
791.328	7.45
791.64	7.49
791.952	7.48
792.264	7.43
792.576	7.39
792.888	7.42
793.2	7.44
793.512	7.46
793.824	7.48
794.136	7.47
794.448	7.52
794.76	7.55
795.071	7.57
795.383	7.58
795.695	7.63
796.006	7.64
796.318	7.62
796.629	7.64
796.941	7.68
797.252	7.67
797.564	7.65
797.875	7.67
798.186	7.72
798.497	7.71
798.809	7.71
799.12	7.7
799.431	7.73
799.742	7.67
800.053	7.73
800.364	7.73
800.675	7.71
800.986	7.75
801.297	7.79
801.608	7.78
801.918	7.79
802.229	7.82
802.54	7.8
802.851	7.79
803.161	7.79
803.472	7.83
803.782	7.83
804.093	7.85
804.403	7.88
804.714	7.94
805.024	8.01
805.334	8.03
805.645	8.05
805.955	8.06
806.265	8.08
806.575	8.07
806.885	8.06
807.195	8.07
807.505	8.11
807.815	8.14
808.125	8.17
808.435	8.15
808.745	8.17
809.055	8.17
809.365	8.18
809.674	8.16
809.984	8.15
810.294	8.2
810.603	8.16
810.913	8.17
811.222	8.19
811.532	8.16
811.841	8.17
812.151	8.17
812.46	8.22
812.769	8.13
813.079	8.17
813.388	8.18
813.697	8.14
814.006	8.12
814.315	8.12
814.624	8.18
814.933	8.14
815.242	8.14
815.551	8.14
815.86	8.16
816.169	8.12
816.478	8.18
816.786	8.16
817.095	8.14
817.404	8.09
817.712	8.08
818.021	8.1
818.33	8.15
818.638	8.18
818.947	8.2
819.255	8.21
819.563	8.21
819.872	8.21
820.18	8.22
820.488	8.22
820.796	8.23
821.105	8.24
821.413	8.27
821.721	8.31
822.029	8.32
822.337	8.32
822.645	8.32
822.953	8.32
823.26	8.33
823.568	8.33
823.876	8.34
824.184	8.37
824.491	8.37
824.799	8.37
825.107	8.38
825.414	8.41
825.722	8.41
826.029	8.43
826.337	8.44
826.644	8.45
826.951	8.46
827.259	8.46
827.566	8.47
827.873	8.48
828.18	8.5
828.488	8.52
828.795	8.52
829.102	8.52
829.409	8.52
829.716	8.54
830.023	8.57
830.329	8.57
830.636	8.59
830.943	8.59
831.25	8.55
831.557	8.55
831.863	8.58
832.17	8.62
832.476	8.61
832.783	8.62
833.089	8.64
833.396	8.63
833.702	8.63
834.009	8.65
834.315	8.6
834.621	8.62
834.928	8.69
835.234	8.72
835.54	8.71
835.846	8.75
836.152	8.71
836.458	8.72
836.764	8.7
837.07	8.7
837.376	8.71
837.682	8.68
837.988	8.63
838.293	8.63
838.599	8.6
838.905	8.56
839.211	8.55
839.516	8.49
839.822	8.5
840.127	8.56
840.433	8.64
840.738	8.64
841.044	8.61
841.349	8.65
841.654	8.64
841.959	8.69
842.265	8.69
842.57	8.7
842.875	8.75
843.18	8.7
843.485	8.73
843.79	8.89
844.095	8.92
844.4	8.96
844.705	9.01
845.01	8.97
845.315	8.88
845.619	8.82
845.924	8.82
846.229	8.96
846.533	8.83
846.838	8.95
847.142	8.92
847.447	8.84
847.751	8.81
848.056	8.79
848.36	8.86
848.664	9.01
848.969	9.11
849.273	9.16
849.577	9.1
849.881	9.26
850.185	9.48
850.489	9.45
850.794	9.47
851.097	9.42
851.401	9.56
851.705	9.58
852.009	9.78
852.313	9.8
852.617	9.63
852.92	9.53
853.224	9.55
853.528	9.65
853.831	9.57
854.135	9.53
854.438	9.54
854.742	9.62
855.045	9.62
855.349	9.79
855.652	9.98
855.955	9.98
856.259	9.93
856.562	9.94
856.865	9.95
857.168	9.94
857.471	10.09
857.774	10.26
858.077	10.33
858.38	10.41
858.683	10.36
858.986	10.49
859.289	10.41
859.592	10.43
859.894	10.45
860.197	10.52
860.5	10.67
860.802	10.62
861.105	10.69
861.407	10.61
861.71	10.52
862.012	10.57
862.315	10.56
862.617	10.44
862.919	10.62
863.222	10.58
863.524	10.7
863.826	10.67
864.128	10.47
864.43	10.44
864.732	10.58
865.034	10.69
865.336	10.68
865.638	10.6
865.94	10.61
866.242	10.65
866.544	10.87
866.846	11.01
867.147	10.89
867.449	10.9
867.751	10.7
868.052	10.66
868.354	10.65
868.655	10.59
868.957	10.52
869.258	10.46
869.56	10.52
869.861	10.67
870.162	10.71
870.463	10.82
870.765	10.8
871.066	10.95
871.367	10.87
871.668	10.95
871.969	11.05
872.27	11.09
872.571	11.09
872.872	11.01
873.173	11.06
873.473	10.99
873.774	11
874.075	11.08
874.376	11.17
874.676	11.1
874.977	11.16
875.277	11.1
875.578	11.2
875.878	11.22
876.179	11.18
876.479	11.44
876.78	11.45
877.08	11.23
877.38	11.16
877.68	11.27
877.981	11.35
878.281	11.36
878.581	11.58
