Data from UWBM91361_Reflection_00003.txt Node
Date: Sun May 02 12:21:00 EDT 2021
User: vgr7
Spectrometer: USB2G7710
Scans to average: 10
Trigger mode: 4
Integration Time (sec): 1.000000E-1
Electric dark correction enabled: true
Boxcar width: 10
XAxis mode: Wavelengths
Number of Pixels in Spectrum: 2048
>>>>>Begin Spectral Data<<<<<
177.721	334.25
178.105	-147.06
178.488	20.06
178.871	32.41
179.254	-96.55
179.636	-63.64
180.019	47.47
180.402	16.67
180.785	23.82
181.168	-120.21
181.55	-62.39
181.933	-80.99
182.316	-26.04
182.698	-12.17
183.081	-58.82
183.463	-194.78
183.846	-23.05
184.228	-21.62
184.611	1.98
184.993	22.96
185.376	25.26
185.758	20.89
186.14	11.8
186.522	8.58
186.904	4.31
187.287	7.84
187.669	8.22
188.051	4.13
188.433	8.47
188.815	3.71
189.197	5.29
189.579	3.37
189.961	2.64
190.342	-2.47
190.724	-0.55
191.106	0.82
191.488	9.38
191.869	4.59
192.251	5.92
192.633	2.87
193.014	-1.62
193.396	-5.36
193.777	-2.61
194.159	0.14
194.54	-4.06
194.922	-4.61
195.303	-0.73
195.684	-2.34
196.065	-4.54
196.447	-8.18
196.828	-7.18
197.209	-7.44
197.59	-8.2
197.971	-6.57
198.352	0.38
198.733	7.23
199.114	4.94
199.495	-1.16
199.876	1.88
200.257	-0.5
200.638	0.55
201.018	2.78
201.399	5.76
201.78	4.97
202.16	3.15
202.541	6.08
202.922	-0.5
203.302	-8.53
203.683	-5.77
204.063	-5.88
204.444	-7.56
204.824	-1.08
205.204	2.09
205.585	3.72
205.965	2.3
206.345	0.33
206.725	-10.81
207.106	-12.41
207.486	-14.11
207.866	-9.56
208.246	-10.06
208.626	-10.74
209.006	-11.36
209.386	-12.23
209.766	-12.54
210.145	-15.71
210.525	-17.5
210.905	-12.27
211.285	-7.24
211.664	-7.28
212.044	-7.28
212.424	-2.41
212.803	-6.23
213.183	-5.26
213.562	-4.88
213.942	-6.95
214.321	-9.83
214.701	-11.09
215.08	-5.93
215.459	-3.14
215.838	-7.68
216.218	-1.51
216.597	-2.05
216.976	-7.38
217.355	-4.63
217.734	-7.65
218.113	-5.9
218.492	-4.16
218.871	-3.23
219.25	-2.54
219.629	-2.31
220.008	1.04
220.387	-1.46
220.766	-6.96
221.144	-12.51
221.523	-8.9
221.902	-8.02
222.28	-5.1
222.659	-1.6
223.037	-2.73
223.416	0.22
223.794	2.05
224.173	-0.98
224.551	0.52
224.929	1.42
225.308	2.27
225.686	3.79
226.064	4.6
226.442	5.25
226.821	5.79
227.199	4.3
227.577	3.35
227.955	2.16
228.333	3.04
228.711	3.55
229.089	5.66
229.467	4.82
229.845	5.75
230.222	5.82
230.6	6
230.978	6.06
231.356	4.62
231.733	4.4
232.111	4.51
232.488	4.15
232.866	4.24
233.243	3.56
233.621	3.3
233.998	2.85
234.376	2.52
234.753	2.88
235.13	3.26
235.508	4.05
235.885	4.49
236.262	4.77
236.639	5.44
237.016	5.38
237.393	5.44
237.77	5.42
238.147	5.48
238.524	5.4
238.901	5.36
239.278	5.88
239.655	5.85
240.032	5.82
240.409	5.96
240.785	5.91
241.162	6.03
241.539	6.15
241.915	6.23
242.292	6.29
242.668	6.18
243.045	6.3
243.421	6.1
243.798	6.09
244.174	6
244.551	6.07
244.927	6.04
245.303	5.92
245.679	5.92
246.056	5.87
246.432	5.91
246.808	5.93
247.184	5.85
247.56	5.81
247.936	5.9
248.312	5.97
248.688	6.04
249.064	6.03
249.44	6.02
249.815	6.05
250.191	5.94
250.567	5.92
250.943	5.83
251.318	5.92
251.694	5.82
252.069	5.75
252.445	5.71
252.82	5.66
253.196	5.78
253.571	5.73
253.947	5.82
254.322	5.8
254.697	5.83
255.073	5.77
255.448	5.8
255.823	5.71
256.198	5.58
256.573	5.49
256.948	5.4
257.323	5.36
257.698	5.39
258.073	5.51
258.448	5.52
258.823	5.57
259.198	5.53
259.573	5.54
259.948	5.61
260.322	5.56
260.697	5.55
261.072	5.49
261.446	5.45
261.821	5.43
262.195	5.4
262.57	5.35
262.944	5.36
263.319	5.35
263.693	5.36
264.067	5.34
264.442	5.33
264.816	5.37
265.19	5.34
265.564	5.34
265.938	5.22
266.313	5.18
266.687	5.06
267.061	5.05
267.435	5.04
267.809	4.98
268.183	5.02
268.556	5.04
268.93	5.03
269.304	5.06
269.678	5.03
270.051	5.01
270.425	5.02
270.799	5.05
271.172	5.02
271.546	5.05
271.919	5.09
272.293	5.09
272.666	5.08
273.04	5.09
273.413	4.96
273.787	4.98
274.16	5
274.533	5.05
274.906	5.04
275.279	5.08
275.653	5.11
276.026	5.06
276.399	5.02
276.772	5.04
277.145	5.09
277.518	5.1
277.891	5.16
278.263	5.19
278.636	5.18
279.009	5.19
279.382	5.15
279.755	5.09
280.127	5.13
280.5	5.15
280.872	5.13
281.245	5.23
281.617	5.27
281.99	5.26
282.362	5.23
282.735	5.22
283.107	5.23
283.479	5.26
283.852	5.27
284.224	5.34
284.596	5.39
284.968	5.36
285.34	5.32
285.713	5.33
286.085	5.32
286.457	5.33
286.829	5.31
287.201	5.33
287.572	5.36
287.944	5.39
288.316	5.43
288.688	5.49
289.06	5.48
289.431	5.5
289.803	5.52
290.175	5.6
290.546	5.64
290.918	5.65
291.289	5.62
291.661	5.66
292.032	5.64
292.403	5.68
292.775	5.69
293.146	5.74
293.517	5.77
293.889	5.79
294.26	5.8
294.631	5.85
295.002	5.87
295.373	5.92
295.744	5.92
296.115	5.89
296.486	5.89
296.857	5.93
297.228	5.93
297.599	5.96
297.97	5.95
298.34	5.99
298.711	5.99
299.082	6.03
299.452	6.04
299.823	6.07
300.194	6.04
300.564	6.05
300.935	6.09
301.305	6.07
301.676	6.07
302.046	6.06
302.416	6.1
302.787	6.13
303.157	6.15
303.527	6.15
303.897	6.17
304.267	6.22
304.637	6.26
305.008	6.28
305.378	6.28
305.748	6.26
306.117	6.23
306.487	6.26
306.857	6.31
307.227	6.35
307.597	6.33
307.967	6.36
308.336	6.36
308.706	6.39
309.076	6.42
309.445	6.42
309.815	6.43
310.184	6.43
310.554	6.41
310.923	6.38
311.293	6.39
311.662	6.39
312.031	6.36
312.401	6.32
312.77	6.32
313.139	6.34
313.508	6.38
313.877	6.41
314.246	6.37
314.616	6.37
314.985	6.33
315.353	6.35
315.722	6.36
316.091	6.38
316.46	6.37
316.829	6.39
317.198	6.44
317.567	6.45
317.935	6.43
318.304	6.49
318.672	6.5
319.041	6.54
319.41	6.55
319.778	6.58
320.147	6.65
320.515	6.65
320.883	6.66
321.252	6.67
321.62	6.62
321.988	6.68
322.357	6.67
322.725	6.69
323.093	6.71
323.461	6.7
323.829	6.71
324.197	6.69
324.565	6.69
324.933	6.66
325.301	6.67
325.669	6.72
326.037	6.66
326.405	6.67
326.772	6.64
327.14	6.63
327.508	6.61
327.875	6.59
328.243	6.59
328.61	6.55
328.978	6.55
329.346	6.54
329.713	6.53
330.08	6.54
330.448	6.53
330.815	6.53
331.182	6.5
331.55	6.49
331.917	6.48
332.284	6.48
332.651	6.5
333.018	6.47
333.385	6.45
333.752	6.49
334.119	6.5
334.486	6.5
334.853	6.52
335.22	6.52
335.587	6.51
335.954	6.52
336.32	6.5
336.687	6.5
337.054	6.51
337.42	6.49
337.787	6.46
338.153	6.49
338.52	6.5
338.886	6.53
339.253	6.51
339.619	6.53
339.986	6.54
340.352	6.55
340.718	6.6
341.084	6.61
341.451	6.6
341.817	6.59
342.183	6.61
342.549	6.58
342.915	6.59
343.281	6.61
343.647	6.64
344.013	6.66
344.379	6.69
344.745	6.67
345.11	6.72
345.476	6.75
345.842	6.74
346.208	6.74
346.573	6.73
346.939	6.76
347.304	6.74
347.67	6.71
348.035	6.71
348.401	6.67
348.766	6.67
349.132	6.65
349.497	6.66
349.862	6.65
350.228	6.66
350.593	6.66
350.958	6.65
351.323	6.62
351.688	6.64
352.053	6.61
352.418	6.66
352.783	6.64
353.148	6.63
353.513	6.63
353.878	6.63
354.243	6.63
354.608	6.62
354.972	6.64
355.337	6.64
355.702	6.62
356.066	6.65
356.431	6.64
356.795	6.66
357.16	6.66
357.524	6.66
357.889	6.66
358.253	6.66
358.618	6.65
358.982	6.67
359.346	6.67
359.71	6.65
360.075	6.62
360.439	6.64
360.803	6.61
361.167	6.6
361.531	6.59
361.895	6.58
362.259	6.59
362.623	6.58
362.987	6.6
363.351	6.61
363.714	6.6
364.078	6.58
364.442	6.57
364.806	6.57
365.169	6.57
365.533	6.57
365.896	6.57
366.26	6.57
366.623	6.55
366.987	6.55
367.35	6.58
367.714	6.59
368.077	6.58
368.44	6.6
368.803	6.59
369.167	6.6
369.53	6.61
369.893	6.63
370.256	6.63
370.619	6.63
370.982	6.62
371.345	6.59
371.708	6.61
372.071	6.61
372.434	6.61
372.797	6.61
373.159	6.63
373.522	6.62
373.885	6.64
374.247	6.65
374.61	6.63
374.973	6.63
375.335	6.63
375.698	6.62
376.06	6.62
376.423	6.65
376.785	6.67
377.147	6.65
377.51	6.66
377.872	6.64
378.234	6.64
378.596	6.65
378.958	6.68
379.321	6.69
379.683	6.69
380.045	6.7
380.407	6.7
380.769	6.69
381.13	6.71
381.492	6.69
381.854	6.69
382.216	6.72
382.578	6.71
382.939	6.72
383.301	6.73
383.663	6.75
384.024	6.74
384.386	6.74
384.747	6.75
385.109	6.75
385.47	6.76
385.832	6.78
386.193	6.79
386.554	6.78
386.916	6.8
387.277	6.8
387.638	6.79
387.999	6.79
388.36	6.81
388.721	6.81
389.082	6.83
389.443	6.83
389.804	6.81
390.165	6.82
390.526	6.81
390.887	6.8
391.248	6.8
391.609	6.8
391.969	6.8
392.33	6.81
392.691	6.8
393.051	6.8
393.412	6.79
393.772	6.79
394.133	6.8
394.493	6.78
394.854	6.79
395.214	6.79
395.574	6.79
395.935	6.77
396.295	6.76
396.655	6.75
397.015	6.75
397.376	6.76
397.736	6.77
398.096	6.76
398.456	6.77
398.816	6.76
399.176	6.76
399.535	6.76
399.895	6.75
400.255	6.74
400.615	6.74
400.975	6.75
401.334	6.74
401.694	6.74
402.054	6.74
402.413	6.74
402.773	6.74
403.132	6.75
403.492	6.75
403.851	6.75
404.211	6.75
404.57	6.76
404.929	6.77
405.288	6.76
405.648	6.78
406.007	6.77
406.366	6.78
406.725	6.78
407.084	6.78
407.443	6.79
407.802	6.8
408.161	6.8
408.52	6.8
408.879	6.8
409.238	6.8
409.596	6.8
409.955	6.8
410.314	6.8
410.673	6.8
411.031	6.81
411.39	6.8
411.748	6.81
412.107	6.8
412.465	6.8
412.824	6.81
413.182	6.81
413.54	6.81
413.899	6.81
414.257	6.81
414.615	6.83
414.974	6.83
415.332	6.83
415.69	6.84
416.048	6.85
416.406	6.87
416.764	6.88
417.122	6.9
417.48	6.91
417.838	6.92
418.195	6.94
418.553	6.94
418.911	6.96
419.269	6.97
419.626	6.99
419.984	7
420.342	7.01
420.699	7.02
421.057	7.04
421.414	7.05
421.772	7.06
422.129	7.06
422.486	7.07
422.844	7.08
423.201	7.07
423.558	7.08
423.915	7.07
424.273	7.07
424.63	7.07
424.987	7.07
425.344	7.06
425.701	7.06
426.058	7.06
426.415	7.05
426.772	7.04
427.128	7.04
427.485	7.03
427.842	7.02
428.199	7.02
428.555	7.01
428.912	7
429.269	7
429.625	6.99
429.982	6.99
430.338	6.98
430.695	6.99
431.051	6.98
431.407	6.99
431.764	6.99
432.12	6.99
432.476	7
432.832	6.99
433.189	6.99
433.545	6.99
433.901	6.99
434.257	6.98
434.613	6.98
434.969	6.99
435.325	6.99
435.681	7
436.036	7
436.392	7.01
436.748	7.01
437.104	7.01
437.459	7.02
437.815	7.03
438.171	7.03
438.526	7.03
438.882	7.03
439.237	7.03
439.593	7.04
439.948	7.04
440.304	7.05
440.659	7.05
441.014	7.06
441.369	7.06
441.725	7.07
442.08	7.08
442.435	7.08
442.79	7.1
443.145	7.1
443.5	7.1
443.855	7.11
444.21	7.11
444.565	7.11
444.92	7.12
445.275	7.12
445.629	7.13
445.984	7.13
446.339	7.13
446.693	7.14
447.048	7.13
447.403	7.13
447.757	7.13
448.112	7.13
448.466	7.13
448.82	7.13
449.175	7.12
449.529	7.12
449.883	7.11
450.238	7.09
450.592	7.09
450.946	7.08
451.3	7.06
451.654	7.05
452.008	7.04
452.362	7.03
452.716	7.03
453.07	7.01
453.424	7.01
453.778	7.01
454.132	7
454.486	7
454.839	7.01
455.193	7.01
455.547	7.02
455.9	7.02
456.254	7.03
456.607	7.05
456.961	7.06
457.314	7.07
457.668	7.08
458.021	7.08
458.375	7.09
458.728	7.1
459.081	7.1
459.434	7.11
459.787	7.11
460.141	7.11
460.494	7.1
460.847	7.1
461.2	7.1
461.553	7.1
461.906	7.1
462.259	7.1
462.611	7.09
462.964	7.09
463.317	7.09
463.67	7.07
464.022	7.06
464.375	7.06
464.728	7.05
465.08	7.04
465.433	7.04
465.785	7.03
466.138	7.03
466.49	7.02
466.843	7.02
467.195	7.02
467.547	7.03
467.899	7.04
468.252	7.04
468.604	7.04
468.956	7.04
469.308	7.05
469.66	7.04
470.012	7.04
470.364	7.04
470.716	7.03
471.068	7.04
471.42	7.04
471.772	7.04
472.123	7.04
472.475	7.04
472.827	7.04
473.178	7.04
473.53	7.04
473.882	7.04
474.233	7.04
474.585	7.04
474.936	7.05
475.288	7.05
475.639	7.06
475.99	7.08
476.342	7.09
476.693	7.09
477.044	7.09
477.395	7.1
477.746	7.12
478.097	7.14
478.448	7.2
478.8	7.33
479.15	7.53
479.501	7.77
479.852	8.03
480.203	8.32
480.554	8.6
480.905	8.91
481.255	9.21
481.606	9.5
481.957	9.8
482.307	10.07
482.658	10.31
483.009	10.52
483.359	10.69
483.709	10.86
484.06	11.01
484.41	11.16
484.761	11.29
485.111	11.42
485.461	11.54
485.811	11.65
486.162	11.7
486.512	11.68
486.862	11.62
487.212	11.52
487.562	11.38
487.912	11.23
488.262	11.04
488.612	10.84
488.961	10.63
489.311	10.4
489.661	10.16
490.011	9.92
490.36	9.68
490.71	9.43
491.06	9.18
491.409	8.93
491.759	8.72
492.108	8.55
492.458	8.4
492.807	8.26
493.157	8.12
493.506	7.99
493.855	7.87
494.204	7.75
494.554	7.64
494.903	7.54
495.252	7.44
495.601	7.36
495.95	7.27
496.299	7.2
496.648	7.12
496.997	7.06
497.346	7.04
497.695	7.04
498.043	7.08
498.392	7.15
498.741	7.22
499.09	7.27
499.438	7.28
499.787	7.29
500.135	7.29
500.484	7.3
500.832	7.31
501.181	7.3
501.529	7.31
501.878	7.3
502.226	7.3
502.574	7.3
502.923	7.29
503.271	7.3
503.619	7.3
503.967	7.31
504.315	7.32
504.663	7.33
505.011	7.33
505.359	7.34
505.707	7.35
506.055	7.35
506.403	7.37
506.751	7.39
507.098	7.39
507.446	7.4
507.794	7.4
508.141	7.41
508.489	7.41
508.837	7.42
509.184	7.43
509.531	7.44
509.879	7.45
510.226	7.45
510.574	7.46
510.921	7.47
511.268	7.47
511.616	7.47
511.963	7.47
512.31	7.48
512.657	7.48
513.004	7.48
513.351	7.49
513.698	7.49
514.045	7.5
514.392	7.51
514.739	7.52
515.086	7.54
515.432	7.55
515.779	7.56
516.126	7.57
516.473	7.58
516.819	7.59
517.166	7.6
517.512	7.61
517.859	7.62
518.205	7.62
518.552	7.63
518.898	7.64
519.245	7.64
519.591	7.65
519.937	7.65
520.283	7.66
520.629	7.66
520.976	7.67
521.322	7.67
521.668	7.68
522.014	7.68
522.36	7.69
522.706	7.69
523.052	7.72
523.398	7.79
523.743	7.91
524.089	8.04
524.435	8.21
524.781	8.38
525.126	8.56
525.472	8.74
525.817	8.92
526.163	9.08
526.509	9.23
526.854	9.35
527.199	9.44
527.545	9.5
527.89	9.54
528.235	9.57
528.581	9.6
528.926	9.63
529.271	9.66
529.616	9.69
529.961	9.71
530.306	9.72
530.651	9.69
530.996	9.62
531.341	9.53
531.686	9.4
532.031	9.24
532.376	9.07
532.721	8.87
533.065	8.66
533.41	8.49
533.755	8.32
534.099	8.19
534.444	8.1
534.788	8.03
535.133	7.97
535.477	7.92
535.822	7.87
536.166	7.83
536.51	7.8
536.855	7.77
537.199	7.76
537.543	7.75
537.887	7.76
538.231	7.77
538.576	7.79
538.92	7.83
539.264	7.87
539.608	7.92
539.951	7.97
540.295	8.03
540.639	8.04
540.983	8.05
541.327	8.04
541.671	8.03
542.014	8.03
542.358	8.04
542.701	8.04
543.045	8.04
543.389	8.05
543.732	8.04
544.075	8.04
544.419	8.03
544.762	8.02
545.105	7.99
545.449	7.95
545.792	7.91
546.135	7.86
546.478	7.82
546.821	7.79
547.165	7.77
547.508	7.77
547.851	7.78
548.194	7.8
548.536	7.82
548.879	7.83
549.222	7.82
549.565	7.81
549.908	7.8
550.25	7.79
550.593	7.78
550.936	7.77
551.278	7.76
551.621	7.75
551.963	7.75
552.306	7.76
552.648	7.74
552.991	7.72
553.333	7.72
553.675	7.71
554.017	7.71
554.36	7.72
554.702	7.71
555.044	7.7
555.386	7.7
555.728	7.7
556.07	7.7
556.412	7.69
556.754	7.69
557.096	7.69
557.438	7.7
557.78	7.7
558.121	7.69
558.463	7.69
558.805	7.69
559.147	7.69
559.488	7.69
559.83	7.71
560.171	7.72
560.513	7.72
560.854	7.73
561.196	7.73
561.537	7.73
561.878	7.74
562.22	7.75
562.561	7.75
562.902	7.75
563.243	7.77
563.584	7.77
563.925	7.78
564.266	7.78
564.607	7.79
564.948	7.79
565.289	7.8
565.63	7.8
565.971	7.8
566.312	7.81
566.653	7.82
566.993	7.82
567.334	7.82
567.675	7.83
568.015	7.85
568.356	7.85
568.696	7.87
569.037	7.87
569.377	7.87
569.718	7.89
570.058	7.89
570.398	7.9
570.739	7.91
571.079	7.91
571.419	7.92
571.759	7.94
572.099	7.94
572.439	7.94
572.779	7.95
573.119	7.96
573.459	7.96
573.799	7.97
574.139	7.97
574.479	7.98
574.819	7.97
575.158	7.96
575.498	7.97
575.838	7.96
576.177	7.96
576.517	7.96
576.856	7.96
577.196	7.95
577.535	7.95
577.875	7.94
578.214	7.93
578.553	7.93
578.893	7.91
579.232	7.91
579.571	7.91
579.91	7.91
580.25	7.9
580.589	7.89
580.928	7.89
581.267	7.89
581.606	7.88
581.945	7.89
582.283	7.89
582.622	7.88
582.961	7.89
583.3	7.89
583.639	7.91
583.977	7.91
584.316	7.92
584.654	7.93
584.993	7.94
585.332	7.95
585.67	7.95
586.008	7.96
586.347	7.98
586.685	7.99
587.024	8
587.362	8.01
587.7	8.03
588.038	8.03
588.376	8.04
588.715	8.04
589.053	8.05
589.391	8.06
589.729	8.06
590.067	8.06
590.404	8.07
590.742	8.07
591.08	8.07
591.418	8.08
591.756	8.08
592.093	8.09
592.431	8.1
592.769	8.12
593.106	8.11
593.444	8.11
593.781	8.11
594.119	8.11
594.456	8.12
594.793	8.12
595.131	8.13
595.468	8.14
595.805	8.14
596.143	8.15
596.48	8.15
596.817	8.15
597.154	8.16
597.491	8.15
597.828	8.16
598.165	8.16
598.502	8.16
598.839	8.17
599.176	8.16
599.512	8.16
599.849	8.14
600.186	8.15
600.523	8.16
600.859	8.16
601.196	8.17
601.532	8.19
601.869	8.19
602.205	8.19
602.542	8.18
602.878	8.2
603.215	8.21
603.551	8.21
603.887	8.22
604.223	8.25
604.56	8.26
604.896	8.26
605.232	8.27
605.568	8.27
605.904	8.27
606.24	8.28
606.576	8.29
606.912	8.31
607.248	8.31
607.583	8.32
607.919	8.32
608.255	8.32
608.591	8.31
608.926	8.32
609.262	8.32
609.597	8.32
609.933	8.32
610.268	8.31
610.604	8.3
610.939	8.29
611.275	8.28
611.61	8.26
611.945	8.27
612.281	8.27
612.616	8.27
612.951	8.27
613.286	8.27
613.621	8.26
613.956	8.25
614.291	8.26
614.626	8.24
614.961	8.25
615.296	8.24
615.631	8.23
615.966	8.22
616.3	8.22
616.635	8.22
616.97	8.22
617.304	8.23
617.639	8.24
617.973	8.24
618.308	8.24
618.642	8.26
618.977	8.25
619.311	8.23
619.646	8.24
619.98	8.24
620.314	8.24
620.648	8.25
620.983	8.26
621.317	8.26
621.651	8.28
621.985	8.28
622.319	8.29
622.653	8.29
622.987	8.31
623.321	8.33
623.655	8.33
623.988	8.35
624.322	8.37
624.656	8.39
624.99	8.4
625.323	8.4
625.657	8.4
625.99	8.42
626.324	8.45
626.657	8.47
626.991	8.49
627.324	8.49
627.658	8.49
627.991	8.49
628.324	8.5
628.657	8.5
628.991	8.52
629.324	8.53
629.657	8.55
629.99	8.54
630.323	8.53
630.656	8.54
630.989	8.54
631.322	8.52
631.655	8.52
631.987	8.51
632.32	8.52
632.653	8.55
632.986	8.54
633.318	8.53
633.651	8.51
633.984	8.51
634.316	8.52
634.649	8.5
634.981	8.51
635.313	8.51
635.646	8.51
635.978	8.5
636.31	8.49
636.643	8.49
636.975	8.51
637.307	8.5
637.639	8.51
637.971	8.52
638.303	8.55
638.635	8.55
638.967	8.55
639.299	8.55
639.631	8.53
639.963	8.55
640.295	8.55
640.626	8.58
640.958	8.59
641.29	8.59
641.621	8.61
641.953	8.63
642.285	8.64
642.616	8.65
642.948	8.67
643.279	8.68
643.61	8.68
643.942	8.66
644.273	8.68
644.604	8.69
644.936	8.69
645.267	8.69
645.598	8.69
645.929	8.7
646.26	8.73
646.591	8.73
646.922	8.72
647.253	8.71
647.584	8.71
647.915	8.73
648.245	8.72
648.576	8.75
648.907	8.74
649.238	8.74
649.568	8.74
649.899	8.73
650.229	8.73
650.56	8.75
650.89	8.77
651.221	8.79
651.551	8.79
651.882	8.79
652.212	8.78
652.542	8.77
652.872	8.79
653.203	8.8
653.533	8.83
653.863	8.84
654.193	8.83
654.523	8.81
654.853	8.79
655.183	8.78
655.513	8.77
655.843	8.78
656.172	8.78
656.502	8.81
656.832	8.82
657.162	8.84
657.491	8.84
657.821	8.85
658.15	8.82
658.48	8.84
658.809	8.84
659.139	8.85
659.468	8.87
659.798	8.88
660.127	8.86
660.456	8.86
660.785	8.88
661.115	8.92
661.444	8.93
661.773	8.95
662.102	8.96
662.431	8.98
662.76	8.98
663.089	8.98
663.418	8.98
663.747	8.99
664.076	9
664.404	8.97
664.733	8.96
665.062	8.99
665.39	8.95
665.719	8.95
666.048	8.98
666.376	8.97
666.705	8.97
667.033	9
667.362	9
667.69	9
668.018	8.99
668.347	9.01
668.675	9
669.003	9.01
669.331	9
669.659	9.01
669.987	9.03
670.315	9.02
670.643	9.04
670.971	9.06
671.299	9.08
671.627	9.09
671.955	9.1
672.283	9.13
672.61	9.14
672.938	9.15
673.266	9.17
673.593	9.17
673.921	9.16
674.249	9.14
674.576	9.16
674.904	9.18
675.231	9.16
675.558	9.18
675.886	9.22
676.213	9.22
676.54	9.24
676.867	9.25
677.195	9.25
677.522	9.26
677.849	9.26
678.176	9.31
678.503	9.34
678.83	9.34
679.157	9.36
679.484	9.34
679.81	9.34
680.137	9.32
680.464	9.33
680.791	9.33
681.117	9.36
681.444	9.35
681.771	9.37
682.097	9.38
682.424	9.4
682.75	9.38
683.077	9.4
683.403	9.4
683.729	9.39
684.056	9.43
684.382	9.43
684.708	9.43
685.034	9.43
685.36	9.4
685.686	9.43
686.012	9.44
686.339	9.47
686.664	9.47
686.99	9.5
687.316	9.53
687.642	9.55
687.968	9.56
688.294	9.57
688.619	9.56
688.945	9.59
689.271	9.58
689.596	9.59
689.922	9.63
690.247	9.65
690.573	9.67
690.898	9.64
691.224	9.67
691.549	9.67
691.874	9.64
692.2	9.68
692.525	9.67
692.85	9.64
693.175	9.67
693.5	9.68
693.825	9.67
694.15	9.66
694.475	9.67
694.8	9.66
695.125	9.65
695.45	9.67
695.775	9.67
696.099	9.67
696.424	9.68
696.749	9.67
697.073	9.69
697.398	9.7
697.723	9.71
698.047	9.72
698.372	9.72
698.696	9.75
699.02	9.76
699.345	9.76
699.669	9.78
699.993	9.76
700.318	9.75
700.642	9.76
700.966	9.77
701.29	9.79
701.614	9.79
701.938	9.81
702.262	9.81
702.586	9.82
702.91	9.81
703.234	9.84
703.557	9.83
703.881	9.82
704.205	9.82
704.529	9.82
704.852	9.79
705.176	9.81
705.499	9.77
705.823	9.77
706.146	9.79
706.47	9.79
706.793	9.83
707.117	9.87
707.44	9.88
707.763	9.85
708.086	9.89
708.409	9.91
708.733	9.91
709.056	9.95
709.379	9.96
709.702	10.02
710.025	10.04
710.348	10.06
710.671	10.07
710.993	10.07
711.316	10.05
711.639	10.05
711.962	10.08
712.284	10.12
712.607	10.13
712.93	10.14
713.252	10.17
713.575	10.15
713.897	10.16
714.22	10.17
714.542	10.2
714.864	10.16
715.187	10.2
715.509	10.23
715.831	10.23
716.153	10.24
716.475	10.27
716.798	10.22
717.12	10.22
717.442	10.25
717.764	10.28
718.085	10.36
718.407	10.39
718.729	10.37
719.051	10.38
719.373	10.42
719.695	10.41
720.016	10.39
720.338	10.42
720.659	10.44
720.981	10.47
721.302	10.47
721.624	10.49
721.945	10.43
722.267	10.4
722.588	10.38
722.909	10.41
723.231	10.34
723.552	10.4
723.873	10.42
724.194	10.42
724.515	10.48
724.836	10.46
725.157	10.49
725.478	10.45
725.799	10.48
726.12	10.44
726.441	10.49
726.762	10.55
727.083	10.5
727.403	10.5
727.724	10.47
728.045	10.49
728.365	10.49
728.686	10.56
729.006	10.61
729.327	10.62
729.647	10.61
729.967	10.63
730.288	10.63
730.608	10.59
730.928	10.61
731.249	10.57
731.569	10.55
731.889	10.54
732.209	10.57
732.529	10.54
732.849	10.56
733.169	10.54
733.489	10.5
733.809	10.55
734.129	10.55
734.448	10.61
734.768	10.58
735.088	10.62
735.408	10.61
735.727	10.62
736.047	10.66
736.366	10.65
736.686	10.64
737.005	10.65
737.325	10.68
737.644	10.66
737.963	10.65
738.283	10.68
738.602	10.69
738.921	10.71
739.24	10.78
739.56	10.83
739.879	10.87
740.198	10.91
740.517	10.93
740.836	10.95
741.155	10.91
741.473	10.97
741.792	10.94
742.111	10.97
742.43	10.99
742.748	10.96
743.067	10.99
743.386	11
743.704	11
744.023	11.03
744.341	11
744.66	11.02
744.978	11.02
745.297	10.98
745.615	10.98
745.933	10.88
746.252	10.83
746.57	10.84
746.888	10.86
747.206	10.81
747.524	10.8
747.842	10.87
748.16	10.82
748.478	10.82
748.796	10.74
749.114	10.69
749.432	10.62
749.749	10.62
750.067	10.66
750.385	10.68
750.703	10.65
751.02	10.64
751.338	10.68
751.655	10.69
751.973	10.73
752.29	10.74
752.608	10.83
752.925	10.84
753.242	10.88
753.56	10.85
753.877	10.87
754.194	10.94
754.511	10.93
754.828	11.01
755.145	11.1
755.462	11.18
755.779	11.17
756.096	11.22
756.413	11.25
756.73	11.31
757.047	11.33
757.364	11.36
757.68	11.46
757.997	11.46
758.314	11.57
758.63	11.58
758.947	11.59
759.264	11.57
759.58	11.61
759.896	11.61
760.213	11.65
760.529	11.67
760.846	11.6
761.162	11.64
761.478	11.63
761.794	11.61
762.11	11.65
762.426	11.7
762.743	11.72
763.059	11.76
763.375	11.74
763.69	11.72
764.006	11.77
764.322	11.76
764.638	11.75
764.954	11.75
765.27	11.75
765.585	11.81
765.901	11.84
766.216	11.79
766.532	11.74
766.848	11.73
767.163	11.78
767.478	11.83
767.794	11.78
768.109	11.76
768.424	11.74
768.74	11.73
769.055	11.71
769.37	11.85
769.685	11.84
770	11.84
770.315	11.88
770.63	11.88
770.945	11.89
771.26	11.88
771.575	11.79
771.89	11.74
772.205	11.81
772.52	11.75
772.834	11.79
773.149	11.82
773.464	11.88
773.778	11.86
774.093	11.87
774.407	11.91
774.722	11.95
775.036	11.96
775.351	11.87
775.665	11.87
775.979	11.72
776.293	11.71
776.608	11.65
776.922	11.65
777.236	11.6
777.55	11.62
777.864	11.71
778.178	11.7
778.492	11.84
778.806	11.72
779.12	11.71
779.434	11.77
779.747	11.79
780.061	11.73
780.375	11.74
780.689	11.73
781.002	11.76
781.316	11.84
781.629	11.88
781.943	12
782.256	12.07
782.57	12.15
782.883	12.04
783.196	12.2
783.51	12.24
783.823	12.25
784.136	12.22
784.449	12.25
784.762	12.38
785.075	12.34
785.388	12.36
785.701	12.46
786.014	12.51
786.327	12.54
786.64	12.57
786.953	12.49
787.266	12.61
787.578	12.66
787.891	12.56
788.204	12.57
788.516	12.6
788.829	12.63
789.141	12.62
789.454	12.73
789.766	12.76
790.079	12.76
790.391	12.83
790.703	12.94
791.016	12.93
791.328	12.96
791.64	13
791.952	12.97
792.264	12.93
792.576	12.95
792.888	12.92
793.2	13.01
793.512	13.15
793.824	12.95
794.136	12.91
794.448	13.03
794.76	13.13
795.071	13.24
795.383	13.21
795.695	13.32
796.006	13.32
796.318	13.29
796.629	13.34
796.941	13.29
797.252	13.27
797.564	13.2
797.875	13.08
798.186	13.09
798.497	13.17
798.809	13.19
799.12	13.21
799.431	13.25
799.742	13.28
800.053	13.23
800.364	13.47
800.675	13.54
800.986	13.58
801.297	13.6
801.608	13.5
801.918	13.54
802.229	13.58
802.54	13.61
802.851	13.48
803.161	13.55
803.472	13.5
803.782	13.44
804.093	13.48
804.403	13.49
804.714	13.49
805.024	13.5
805.334	13.59
805.645	13.55
805.955	13.58
806.265	13.53
806.575	13.59
806.885	13.44
807.195	13.41
807.505	13.31
807.815	13.23
808.125	13.26
808.435	13.29
808.745	13.23
809.055	13.15
809.365	13.41
809.674	13.4
809.984	13.64
810.294	13.69
810.603	13.78
810.913	14.08
811.222	14.14
811.532	14.25
811.841	14.15
812.151	14.2
812.46	14.22
812.769	14.19
813.079	14.21
813.388	14.32
813.697	14.4
814.006	14.43
814.315	14.59
814.624	14.74
814.933	14.79
815.242	14.8
815.551	14.94
815.86	14.84
816.169	14.85
816.478	14.75
816.786	14.73
817.095	14.71
817.404	14.75
817.712	14.6
818.021	14.57
818.33	14.65
818.638	14.76
818.947	14.79
819.255	14.79
819.563	14.82
819.872	14.85
820.18	14.86
820.488	14.86
820.796	14.84
821.105	14.74
821.413	14.74
821.721	14.85
822.029	14.92
822.337	14.96
822.645	14.96
822.953	14.96
823.26	14.97
823.568	15
823.876	14.96
824.184	14.98
824.491	14.98
824.799	14.96
825.107	14.95
825.414	14.96
825.722	14.98
826.029	14.99
826.337	14.99
826.644	15.03
826.951	15.07
827.259	15.11
827.566	15.16
827.873	15.19
828.18	15.13
828.488	15.1
828.795	15.12
829.102	15.15
829.409	15.19
829.716	15.25
830.023	15.21
830.329	15.25
830.636	15.32
830.943	15.45
831.25	15.55
831.557	15.57
831.863	15.63
832.17	15.67
832.476	15.73
832.783	15.79
833.089	15.78
833.396	15.8
833.702	15.75
834.009	15.78
834.315	15.77
834.621	15.82
834.928	15.85
835.234	15.81
835.54	15.78
835.846	15.81
836.152	15.81
836.458	15.84
836.764	15.83
837.07	15.85
837.376	15.69
837.682	15.65
837.988	15.8
838.293	15.83
838.599	15.89
838.905	15.84
839.211	15.84
839.516	15.96
839.822	16.15
840.127	16.22
840.433	16.36
840.738	16.48
841.044	16.54
841.349	16.57
841.654	16.78
841.959	16.96
842.265	17.06
842.57	16.95
842.875	17.12
843.18	17.34
843.485	17.48
843.79	17.39
844.095	17.44
844.4	17.38
844.705	17.41
845.01	17.49
845.315	17.55
845.619	17.53
845.924	17.29
846.229	16.94
846.533	16.95
846.838	16.87
847.142	16.79
847.447	16.67
847.751	16.75
848.056	16.39
848.36	16.1
848.664	15.98
848.969	16.14
849.273	16.25
849.577	16.13
849.881	16.12
850.185	16.67
850.489	16.83
850.794	16.88
851.097	16.92
851.401	16.96
851.705	16.99
852.009	17.09
852.313	16.98
852.617	17.27
852.92	17.17
853.224	17.4
853.528	17.69
853.831	17.68
854.135	17.3
854.438	17.48
854.742	17.76
855.045	17.62
855.349	17.64
855.652	17.56
855.955	17.27
856.259	17.13
856.562	17.03
856.865	17.41
857.168	17.16
857.471	16.98
857.774	16.72
858.077	16.78
858.38	16.82
858.683	16.69
858.986	16.13
859.289	16.56
859.592	16.29
859.894	15.82
860.197	16.31
860.5	16.23
860.802	16.34
861.105	16.19
861.407	16.67
861.71	16.95
862.012	17.17
862.315	17.43
862.617	17.33
862.919	17.12
863.222	16.92
863.524	17.06
863.826	17.21
864.128	17.57
864.43	17.64
864.732	17.7
865.034	17.67
865.336	18.01
865.638	17.33
865.94	17.25
866.242	17.68
866.544	17.6
866.846	18.09
867.147	17.97
867.449	17.99
867.751	17.69
868.052	17.51
868.354	17.1
868.655	17.2
868.957	17.46
869.258	17.79
869.56	17.6
869.861	17.87
870.162	17.86
870.463	18.05
870.765	18.45
871.066	18.55
871.367	19.18
871.668	19.21
871.969	19.68
872.27	19.86
872.571	19.69
872.872	19.58
873.173	19.51
873.473	19.64
873.774	19.72
874.075	20.11
874.376	19.82
874.676	20.1
874.977	20.17
875.277	19.81
875.578	19.32
875.878	19.48
876.179	19.19
876.479	19.16
876.78	18.87
877.08	18.38
877.38	18.21
877.68	17.81
877.981	17.76
878.281	17.93
878.581	17.95
