Data from UWBM104549_Reflection_00002.txt Node
Date: Sun May 02 12:24:12 EDT 2021
User: vgr7
Spectrometer: USB2G7710
Scans to average: 10
Trigger mode: 4
Integration Time (sec): 1.000000E-1
Electric dark correction enabled: true
Boxcar width: 10
XAxis mode: Wavelengths
Number of Pixels in Spectrum: 2048
>>>>>Begin Spectral Data<<<<<
177.721	934
178.105	288.57
178.488	273.89
178.871	626.53
179.254	-62.1
179.636	-38.2
180.019	1465
180.402	22.22
180.785	23.27
181.168	-6.42
181.55	11.28
181.933	-12.5
182.316	-12.11
182.698	18.02
183.081	14.53
183.463	-149.19
183.846	-47.99
184.228	-55.36
184.611	-43.72
184.993	-9.37
185.376	-0.54
185.758	-1.91
186.14	-9.06
186.522	-2.16
186.904	-6.36
187.287	-1.59
187.669	1.7
188.051	2.56
188.433	11.18
188.815	11.75
189.197	12.61
189.579	13.59
189.961	13.05
190.342	11.24
190.724	9.7
191.106	5.63
191.488	11.39
191.869	4.74
192.251	11.3
192.633	13.55
193.014	12.96
193.396	12.14
193.777	15.67
194.159	17.04
194.54	6.57
194.922	10.23
195.303	17.66
195.684	15.54
196.065	11.22
196.447	7.12
196.828	9.1
197.209	5.89
197.59	-4.7
197.971	-4.34
198.352	-2.48
198.733	7.98
199.114	10.72
199.495	13.26
199.876	13.5
200.257	13.67
200.638	10.94
201.018	8.54
201.399	4.45
201.78	2.92
202.16	1.88
202.541	4.57
202.922	1.09
203.302	-3.97
203.683	-3.23
204.063	-4.37
204.444	-1.38
204.824	-0.72
205.204	1.91
205.585	4.23
205.965	2.61
206.345	3.25
206.725	-2.52
207.106	-5.04
207.486	-4.84
207.866	-3.7
208.246	-7.23
208.626	-6.15
209.006	-10.1
209.386	-13.89
209.766	-17.34
210.145	-18.14
210.525	-20.64
210.905	-20.66
211.285	-16.85
211.664	-17.46
212.044	-15.02
212.424	-9.1
212.803	-10.4
213.183	-5.99
213.562	-5.39
213.942	-7.3
214.321	-15.33
214.701	-17.61
215.08	-15.97
215.459	-19.64
215.838	-19.12
216.218	-14.6
216.597	-11.23
216.976	-6.02
217.355	-4.85
217.734	-3.56
218.113	-5.93
218.492	-0.9
218.871	1.88
219.25	-0.33
219.629	0.2
220.008	0.37
220.387	-2.89
220.766	-5.7
221.144	-11.33
221.523	-6.44
221.902	-2.9
222.28	-1.71
222.659	-0.13
223.037	2.14
223.416	2.29
223.794	1.39
224.173	1.68
224.551	0.26
224.929	-1.36
225.308	1.72
225.686	1.5
226.064	3.5
226.442	3.14
226.821	1.12
227.199	1.36
227.577	-0.34
227.955	-0.85
228.333	-1.25
228.711	-0.64
229.089	2.18
229.467	2.44
229.845	2.44
230.222	3.5
230.6	3.08
230.978	2.25
231.356	2.47
231.733	3.27
232.111	3.11
232.488	2.94
232.866	2.66
233.243	2.4
233.621	3.19
233.998	2.45
234.376	2.51
234.753	3.56
235.13	3.77
235.508	5.32
235.885	5.78
236.262	5.92
236.639	5.76
237.016	4.73
237.393	4.18
237.77	4.06
238.147	3.86
238.524	4.21
238.901	4.67
239.278	4.65
239.655	4.57
240.032	4.43
240.409	4.6
240.785	4.71
241.162	4.92
241.539	4.81
241.915	4.8
242.292	4.77
242.668	4.69
243.045	4.7
243.421	4.49
243.798	4.45
244.174	4.37
244.551	4.36
244.927	4.39
245.303	4.4
245.679	4.48
246.056	4.45
246.432	4.4
246.808	4.29
247.184	4.26
247.56	4.23
247.936	4.24
248.312	4.19
248.688	4.23
249.064	4.11
249.44	4.1
249.815	4.22
250.191	4.19
250.567	4.17
250.943	4.11
251.318	4.1
251.694	4.05
252.069	4.01
252.445	4.05
252.82	4.02
253.196	3.99
253.571	3.9
253.947	3.99
254.322	4.02
254.697	4.09
255.073	4.1
255.448	4.11
255.823	4.09
256.198	3.98
256.573	3.92
256.948	3.93
257.323	3.99
257.698	3.88
258.073	3.9
258.448	3.9
258.823	3.92
259.198	3.9
259.573	3.93
259.948	3.98
260.322	3.92
260.697	3.9
261.072	3.89
261.446	3.9
261.821	3.89
262.195	3.83
262.57	3.77
262.944	3.77
263.319	3.74
263.693	3.81
264.067	3.87
264.442	3.84
264.816	3.86
265.19	3.83
265.564	3.9
265.938	3.79
266.313	3.76
266.687	3.72
267.061	3.76
267.435	3.73
267.809	3.7
268.183	3.72
268.556	3.77
268.93	3.81
269.304	3.77
269.678	3.72
270.051	3.74
270.425	3.79
270.799	3.76
271.172	3.75
271.546	3.68
271.919	3.68
272.293	3.67
272.666	3.64
273.04	3.63
273.413	3.53
273.787	3.55
274.16	3.54
274.533	3.54
274.906	3.5
275.279	3.53
275.653	3.54
276.026	3.51
276.399	3.51
276.772	3.5
277.145	3.56
277.518	3.58
277.891	3.62
278.263	3.63
278.636	3.65
279.009	3.66
279.382	3.65
279.755	3.63
280.127	3.68
280.5	3.7
280.872	3.69
281.245	3.79
281.617	3.82
281.99	3.86
282.362	3.9
282.735	3.89
283.107	3.86
283.479	3.86
283.852	3.87
284.224	3.85
284.596	3.84
284.968	3.82
285.34	3.82
285.713	3.82
286.085	3.79
286.457	3.82
286.829	3.83
287.201	3.81
287.572	3.87
287.944	3.91
288.316	3.92
288.688	3.94
289.06	3.91
289.431	3.89
289.803	3.87
290.175	3.86
290.546	3.89
290.918	3.89
291.289	3.87
291.661	3.88
292.032	3.85
292.403	3.84
292.775	3.83
293.146	3.85
293.517	3.83
293.889	3.83
294.26	3.8
294.631	3.81
295.002	3.84
295.373	3.85
295.744	3.78
296.115	3.8
296.486	3.8
296.857	3.8
297.228	3.82
297.599	3.85
297.97	3.84
298.34	3.86
298.711	3.85
299.082	3.84
299.452	3.84
299.823	3.91
300.194	3.92
300.564	3.93
300.935	3.94
301.305	3.96
301.676	3.95
302.046	3.95
302.416	3.94
302.787	3.93
303.157	3.94
303.527	3.98
303.897	3.94
304.267	3.95
304.637	4
305.008	4.04
305.378	4.04
305.748	4.04
306.117	4.03
306.487	4.06
306.857	4.07
307.227	4.07
307.597	4.03
307.967	4.02
308.336	3.99
308.706	4
309.076	3.97
309.445	3.97
309.815	3.97
310.184	3.99
310.554	4
310.923	3.94
311.293	3.94
311.662	3.96
312.031	3.92
312.401	3.87
312.77	3.83
313.139	3.84
313.508	3.83
313.877	3.85
314.246	3.83
314.616	3.85
314.985	3.84
315.353	3.82
315.722	3.81
316.091	3.81
316.46	3.79
316.829	3.85
317.198	3.86
317.567	3.85
317.935	3.83
318.304	3.86
318.672	3.88
319.041	3.89
319.41	3.9
319.778	3.96
320.147	4
320.515	4.01
320.883	3.95
321.252	3.95
321.62	3.91
321.988	3.95
322.357	3.95
322.725	3.95
323.093	3.96
323.461	3.96
323.829	3.98
324.197	3.96
324.565	3.95
324.933	3.93
325.301	4
325.669	3.99
326.037	3.97
326.405	3.97
326.772	3.94
327.14	3.95
327.508	3.93
327.875	3.93
328.243	3.94
328.61	3.96
328.978	4.02
329.346	4
329.713	3.98
330.08	3.99
330.448	4
330.815	4.02
331.182	4.03
331.55	4.06
331.917	4.07
332.284	4.04
332.651	4.05
333.018	4.01
333.385	4
333.752	4.01
334.119	3.99
334.486	3.98
334.853	3.96
335.22	3.97
335.587	3.98
335.954	4.01
336.32	4
336.687	3.98
337.054	3.99
337.42	3.98
337.787	3.94
338.153	3.96
338.52	3.97
338.886	3.95
339.253	3.9
339.619	3.89
339.986	3.93
340.352	3.93
340.718	3.93
341.084	3.94
341.451	3.93
341.817	3.94
342.183	3.96
342.549	3.97
342.915	3.98
343.281	3.99
343.647	3.98
344.013	3.97
344.379	3.99
344.745	3.98
345.11	4
345.476	4.04
345.842	4.04
346.208	4.01
346.573	4.03
346.939	4.07
347.304	4.06
347.67	4.02
348.035	4.05
348.401	4.05
348.766	4.09
349.132	4.11
349.497	4.13
349.862	4.13
350.228	4.13
350.593	4.12
350.958	4.09
351.323	4.09
351.688	4.15
352.053	4.14
352.418	4.18
352.783	4.21
353.148	4.2
353.513	4.16
353.878	4.19
354.243	4.2
354.608	4.19
354.972	4.22
355.337	4.25
355.702	4.21
356.066	4.22
356.431	4.18
356.795	4.19
357.16	4.2
357.524	4.19
357.889	4.19
358.253	4.2
358.618	4.22
358.982	4.23
359.346	4.2
359.71	4.17
360.075	4.17
360.439	4.15
360.803	4.14
361.167	4.17
361.531	4.18
361.895	4.17
362.259	4.17
362.623	4.17
362.987	4.17
363.351	4.18
363.714	4.19
364.078	4.21
364.442	4.2
364.806	4.18
365.169	4.21
365.533	4.19
365.896	4.2
366.26	4.19
366.623	4.19
366.987	4.2
367.35	4.21
367.714	4.2
368.077	4.21
368.44	4.21
368.803	4.2
369.167	4.21
369.53	4.22
369.893	4.22
370.256	4.22
370.619	4.22
370.982	4.22
371.345	4.22
371.708	4.24
372.071	4.25
372.434	4.27
372.797	4.26
373.159	4.3
373.522	4.3
373.885	4.32
374.247	4.33
374.61	4.32
374.973	4.32
375.335	4.33
375.698	4.34
376.06	4.34
376.423	4.35
376.785	4.35
377.147	4.36
377.51	4.38
377.872	4.39
378.234	4.4
378.596	4.42
378.958	4.43
379.321	4.44
379.683	4.44
380.045	4.44
380.407	4.44
380.769	4.44
381.13	4.45
381.492	4.44
381.854	4.46
382.216	4.47
382.578	4.48
382.939	4.51
383.301	4.52
383.663	4.54
384.024	4.54
384.386	4.54
384.747	4.54
385.109	4.54
385.47	4.54
385.832	4.54
386.193	4.55
386.554	4.54
386.916	4.55
387.277	4.54
387.638	4.55
387.999	4.56
388.36	4.56
388.721	4.56
389.082	4.57
389.443	4.57
389.804	4.57
390.165	4.57
390.526	4.57
390.887	4.56
391.248	4.57
391.609	4.57
391.969	4.58
392.33	4.6
392.691	4.59
393.051	4.6
393.412	4.59
393.772	4.6
394.133	4.6
394.493	4.6
394.854	4.61
395.214	4.61
395.574	4.62
395.935	4.61
396.295	4.61
396.655	4.6
397.015	4.6
397.376	4.6
397.736	4.62
398.096	4.61
398.456	4.62
398.816	4.62
399.176	4.61
399.535	4.62
399.895	4.63
400.255	4.65
400.615	4.65
400.975	4.67
401.334	4.66
401.694	4.67
402.054	4.68
402.413	4.69
402.773	4.69
403.132	4.69
403.492	4.7
403.851	4.7
404.211	4.7
404.57	4.71
404.929	4.73
405.288	4.72
405.648	4.74
406.007	4.74
406.366	4.75
406.725	4.76
407.084	4.75
407.443	4.76
407.802	4.75
408.161	4.75
408.52	4.75
408.879	4.76
409.238	4.76
409.596	4.75
409.955	4.76
410.314	4.76
410.673	4.75
411.031	4.76
411.39	4.77
411.748	4.77
412.107	4.77
412.465	4.76
412.824	4.77
413.182	4.78
413.54	4.78
413.899	4.78
414.257	4.79
414.615	4.8
414.974	4.8
415.332	4.81
415.69	4.82
416.048	4.82
416.406	4.83
416.764	4.84
417.122	4.86
417.48	4.88
417.838	4.89
418.195	4.9
418.553	4.9
418.911	4.9
419.269	4.91
419.626	4.92
419.984	4.93
420.342	4.93
420.699	4.94
421.057	4.95
421.414	4.95
421.772	4.96
422.129	4.96
422.486	4.96
422.844	4.97
423.201	4.97
423.558	4.97
423.915	4.97
424.273	4.97
424.63	4.97
424.987	4.96
425.344	4.96
425.701	4.95
426.058	4.96
426.415	4.96
426.772	4.95
427.128	4.96
427.485	4.95
427.842	4.95
428.199	4.94
428.555	4.94
428.912	4.93
429.269	4.93
429.625	4.92
429.982	4.92
430.338	4.92
430.695	4.92
431.051	4.92
431.407	4.92
431.764	4.93
432.12	4.93
432.476	4.94
432.832	4.95
433.189	4.96
433.545	4.96
433.901	4.97
434.257	4.97
434.613	4.97
434.969	4.98
435.325	4.99
435.681	4.99
436.036	5
436.392	5.01
436.748	5.03
437.104	5.04
437.459	5.05
437.815	5.05
438.171	5.05
438.526	5.06
438.882	5.06
439.237	5.07
439.593	5.08
439.948	5.08
440.304	5.08
440.659	5.08
441.014	5.09
441.369	5.09
441.725	5.1
442.08	5.1
442.435	5.1
442.79	5.11
443.145	5.12
443.5	5.12
443.855	5.12
444.21	5.11
444.565	5.12
444.92	5.12
445.275	5.12
445.629	5.12
445.984	5.13
446.339	5.13
446.693	5.13
447.048	5.12
447.403	5.12
447.757	5.12
448.112	5.12
448.466	5.12
448.82	5.12
449.175	5.12
449.529	5.11
449.883	5.11
450.238	5.1
450.592	5.09
450.946	5.09
451.3	5.09
451.654	5.09
452.008	5.08
452.362	5.07
452.716	5.06
453.07	5.06
453.424	5.05
453.778	5.06
454.132	5.05
454.486	5.05
454.839	5.05
455.193	5.05
455.547	5.05
455.9	5.06
456.254	5.06
456.607	5.07
456.961	5.08
457.314	5.1
457.668	5.1
458.021	5.11
458.375	5.11
458.728	5.11
459.081	5.11
459.434	5.11
459.787	5.12
460.141	5.13
460.494	5.13
460.847	5.13
461.2	5.13
461.553	5.13
461.906	5.13
462.259	5.13
462.611	5.14
462.964	5.14
463.317	5.13
463.67	5.12
464.022	5.12
464.375	5.12
464.728	5.1
465.08	5.11
465.433	5.11
465.785	5.11
466.138	5.11
466.49	5.11
466.843	5.11
467.195	5.11
467.547	5.11
467.899	5.11
468.252	5.1
468.604	5.11
468.956	5.11
469.308	5.11
469.66	5.11
470.012	5.11
470.364	5.1
470.716	5.1
471.068	5.11
471.42	5.11
471.772	5.11
472.123	5.12
472.475	5.11
472.827	5.11
473.178	5.11
473.53	5.11
473.882	5.12
474.233	5.13
474.585	5.14
474.936	5.14
475.288	5.15
475.639	5.15
475.99	5.16
476.342	5.18
476.693	5.19
477.044	5.19
477.395	5.19
477.746	5.2
478.097	5.21
478.448	5.24
478.8	5.33
479.15	5.48
479.501	5.66
479.852	5.86
480.203	6.07
480.554	6.28
480.905	6.51
481.255	6.73
481.606	6.94
481.957	7.15
482.307	7.35
482.658	7.53
483.009	7.69
483.359	7.82
483.709	7.93
484.06	8.05
484.41	8.15
484.761	8.26
485.111	8.35
485.461	8.45
485.811	8.53
486.162	8.57
486.512	8.55
486.862	8.51
487.212	8.44
487.562	8.33
487.912	8.22
488.262	8.08
488.612	7.94
488.961	7.78
489.311	7.61
489.661	7.43
490.011	7.26
490.36	7.08
490.71	6.9
491.06	6.72
491.409	6.53
491.759	6.38
492.108	6.25
492.458	6.14
492.807	6.04
493.157	5.94
493.506	5.85
493.855	5.76
494.204	5.66
494.554	5.58
494.903	5.51
495.252	5.44
495.601	5.37
495.95	5.31
496.299	5.25
496.648	5.2
496.997	5.16
497.346	5.14
497.695	5.13
498.043	5.17
498.392	5.22
498.741	5.28
499.09	5.32
499.438	5.33
499.787	5.34
500.135	5.34
500.484	5.35
500.832	5.36
501.181	5.37
501.529	5.38
501.878	5.38
502.226	5.39
502.574	5.38
502.923	5.38
503.271	5.39
503.619	5.39
503.967	5.4
504.315	5.41
504.663	5.42
505.011	5.43
505.359	5.44
505.707	5.45
506.055	5.46
506.403	5.47
506.751	5.48
507.098	5.49
507.446	5.49
507.794	5.5
508.141	5.5
508.489	5.51
508.837	5.52
509.184	5.53
509.531	5.54
509.879	5.54
510.226	5.56
510.574	5.56
510.921	5.57
511.268	5.58
511.616	5.58
511.963	5.58
512.31	5.59
512.657	5.59
513.004	5.59
513.351	5.59
513.698	5.6
514.045	5.61
514.392	5.62
514.739	5.63
515.086	5.64
515.432	5.65
515.779	5.66
516.126	5.66
516.473	5.67
516.819	5.68
517.166	5.69
517.512	5.7
517.859	5.7
518.205	5.71
518.552	5.72
518.898	5.72
519.245	5.73
519.591	5.73
519.937	5.73
520.283	5.74
520.629	5.75
520.976	5.75
521.322	5.76
521.668	5.76
522.014	5.77
522.36	5.77
522.706	5.78
523.052	5.8
523.398	5.85
523.743	5.94
524.089	6.05
524.435	6.17
524.781	6.3
525.126	6.43
525.472	6.57
525.817	6.7
526.163	6.82
526.509	6.94
526.854	7.04
527.199	7.11
527.545	7.16
527.89	7.19
528.235	7.22
528.581	7.24
528.926	7.27
529.271	7.29
529.616	7.31
529.961	7.33
530.306	7.33
530.651	7.31
530.996	7.26
531.341	7.18
531.686	7.09
532.031	6.98
532.376	6.85
532.721	6.7
533.065	6.55
533.41	6.42
533.755	6.29
534.099	6.18
534.444	6.11
534.788	6.05
535.133	6.01
535.477	5.97
535.822	5.93
536.166	5.9
536.51	5.87
536.855	5.85
537.199	5.84
537.543	5.84
537.887	5.85
538.231	5.85
538.576	5.87
538.92	5.9
539.264	5.93
539.608	5.97
539.951	6.02
540.295	6.06
540.639	6.07
540.983	6.08
541.327	6.07
541.671	6.06
542.014	6.07
542.358	6.07
542.701	6.07
543.045	6.08
543.389	6.08
543.732	6.08
544.075	6.08
544.419	6.08
544.762	6.06
545.105	6.04
545.449	6.03
545.792	6
546.135	5.97
546.478	5.93
546.821	5.91
547.165	5.9
547.508	5.89
547.851	5.89
548.194	5.91
548.536	5.93
548.879	5.94
549.222	5.94
549.565	5.94
549.908	5.93
550.25	5.93
550.593	5.92
550.936	5.91
551.278	5.9
551.621	5.9
551.963	5.9
552.306	5.9
552.648	5.9
552.991	5.89
553.333	5.89
553.675	5.89
554.017	5.88
554.36	5.89
554.702	5.89
555.044	5.89
555.386	5.89
555.728	5.89
556.07	5.88
556.412	5.87
556.754	5.87
557.096	5.88
557.438	5.88
557.78	5.87
558.121	5.88
558.463	5.88
558.805	5.87
559.147	5.87
559.488	5.87
559.83	5.88
560.171	5.89
560.513	5.88
560.854	5.89
561.196	5.89
561.537	5.89
561.878	5.91
562.22	5.91
562.561	5.91
562.902	5.93
563.243	5.96
563.584	5.96
563.925	5.97
564.266	5.97
564.607	5.98
564.948	5.99
565.289	6
565.63	6.01
565.971	6.02
566.312	6.03
566.653	6.04
566.993	6.03
567.334	6.03
567.675	6.05
568.015	6.04
568.356	6.06
568.696	6.06
569.037	6.06
569.377	6.08
569.718	6.09
570.058	6.08
570.398	6.08
570.739	6.08
571.079	6.08
571.419	6.09
571.759	6.1
572.099	6.1
572.439	6.1
572.779	6.1
573.119	6.1
573.459	6.1
573.799	6.1
574.139	6.12
574.479	6.12
574.819	6.12
575.158	6.12
575.498	6.12
575.838	6.12
576.177	6.11
576.517	6.1
576.856	6.1
577.196	6.11
577.535	6.11
577.875	6.11
578.214	6.11
578.553	6.11
578.893	6.09
579.232	6.07
579.571	6.08
579.91	6.07
580.25	6.07
580.589	6.06
580.928	6.05
581.267	6.05
581.606	6.05
581.945	6.06
582.283	6.07
582.622	6.07
582.961	6.08
583.3	6.08
583.639	6.09
583.977	6.1
584.316	6.09
584.654	6.1
584.993	6.1
585.332	6.1
585.67	6.1
586.008	6.11
586.347	6.12
586.685	6.13
587.024	6.14
587.362	6.14
587.7	6.15
588.038	6.16
588.376	6.16
588.715	6.16
589.053	6.17
589.391	6.17
589.729	6.17
590.067	6.17
590.404	6.17
590.742	6.17
591.08	6.17
591.418	6.17
591.756	6.18
592.093	6.19
592.431	6.19
592.769	6.19
593.106	6.2
593.444	6.2
593.781	6.21
594.119	6.22
594.456	6.23
594.793	6.24
595.131	6.25
595.468	6.25
595.805	6.25
596.143	6.26
596.48	6.27
596.817	6.28
597.154	6.28
597.491	6.28
597.828	6.28
598.165	6.29
598.502	6.29
598.839	6.29
599.176	6.28
599.512	6.29
599.849	6.29
600.186	6.3
600.523	6.3
600.859	6.31
601.196	6.3
601.532	6.31
601.869	6.32
602.205	6.32
602.542	6.32
602.878	6.34
603.215	6.35
603.551	6.34
603.887	6.34
604.223	6.36
604.56	6.36
604.896	6.36
605.232	6.37
605.568	6.37
605.904	6.38
606.24	6.39
606.576	6.39
606.912	6.4
607.248	6.4
607.583	6.41
607.919	6.41
608.255	6.41
608.591	6.41
608.926	6.4
609.262	6.4
609.597	6.4
609.933	6.39
610.268	6.39
610.604	6.39
610.939	6.38
611.275	6.38
611.61	6.38
611.945	6.39
612.281	6.39
612.616	6.41
612.951	6.38
613.286	6.38
613.621	6.4
613.956	6.39
614.291	6.41
614.626	6.4
614.961	6.41
615.296	6.41
615.631	6.4
615.966	6.42
616.3	6.42
616.635	6.44
616.97	6.43
617.304	6.44
617.639	6.45
617.973	6.45
618.308	6.46
618.642	6.47
618.977	6.46
619.311	6.45
619.646	6.46
619.98	6.48
620.314	6.48
620.648	6.48
620.983	6.47
621.317	6.47
621.651	6.48
621.985	6.47
622.319	6.46
622.653	6.47
622.987	6.49
623.321	6.48
623.655	6.48
623.988	6.5
624.322	6.5
624.656	6.5
624.99	6.51
625.323	6.52
625.657	6.52
625.99	6.53
626.324	6.54
626.657	6.54
626.991	6.54
627.324	6.55
627.658	6.55
627.991	6.55
628.324	6.55
628.657	6.55
628.991	6.57
629.324	6.58
629.657	6.6
629.99	6.59
630.323	6.6
630.656	6.6
630.989	6.61
631.322	6.61
631.655	6.62
631.987	6.63
632.32	6.63
632.653	6.64
632.986	6.65
633.318	6.66
633.651	6.66
633.984	6.67
634.316	6.7
634.649	6.71
634.981	6.73
635.313	6.74
635.646	6.75
635.978	6.75
636.31	6.77
636.643	6.75
636.975	6.75
637.307	6.76
637.639	6.76
637.971	6.76
638.303	6.76
638.635	6.76
638.967	6.75
639.299	6.75
639.631	6.74
639.963	6.75
640.295	6.76
640.626	6.78
640.958	6.79
641.29	6.76
641.621	6.76
641.953	6.77
642.285	6.77
642.616	6.77
642.948	6.78
643.279	6.77
643.61	6.79
643.942	6.79
644.273	6.81
644.604	6.83
644.936	6.82
645.267	6.83
645.598	6.85
645.929	6.86
646.26	6.87
646.591	6.89
646.922	6.9
647.253	6.88
647.584	6.84
647.915	6.85
648.245	6.87
648.576	6.88
648.907	6.88
649.238	6.9
649.568	6.89
649.899	6.87
650.229	6.88
650.56	6.9
650.89	6.91
651.221	6.91
651.551	6.91
651.882	6.94
652.212	6.93
652.542	6.92
652.872	6.92
653.203	6.95
653.533	6.96
653.863	6.94
654.193	6.97
654.523	6.99
654.853	7
655.183	6.99
655.513	6.99
655.843	7
656.172	6.99
656.502	7.02
656.832	7.04
657.162	7.07
657.491	7.06
657.821	7.07
658.15	7.07
658.48	7.08
658.809	7.07
659.139	7.08
659.468	7.11
659.798	7.12
660.127	7.11
660.456	7.1
660.785	7.11
661.115	7.12
661.444	7.14
661.773	7.15
662.102	7.15
662.431	7.17
662.76	7.16
663.089	7.17
663.418	7.16
663.747	7.16
664.076	7.15
664.404	7.16
664.733	7.16
665.062	7.17
665.39	7.16
665.719	7.17
666.048	7.16
666.376	7.14
666.705	7.14
667.033	7.14
667.362	7.16
667.69	7.18
668.018	7.17
668.347	7.17
668.675	7.17
669.003	7.2
669.331	7.2
669.659	7.19
669.987	7.2
670.315	7.21
670.643	7.23
670.971	7.23
671.299	7.21
671.627	7.21
671.955	7.22
672.283	7.23
672.61	7.25
672.938	7.25
673.266	7.26
673.593	7.28
673.921	7.27
674.249	7.28
674.576	7.3
674.904	7.3
675.231	7.32
675.558	7.34
675.886	7.36
676.213	7.37
676.54	7.4
676.867	7.42
677.195	7.42
677.522	7.43
677.849	7.44
678.176	7.49
678.503	7.53
678.83	7.51
679.157	7.52
679.484	7.5
679.81	7.5
680.137	7.52
680.464	7.52
680.791	7.51
681.117	7.51
681.444	7.49
681.771	7.51
682.097	7.5
682.424	7.49
682.75	7.45
683.077	7.44
683.403	7.46
683.729	7.45
684.056	7.45
684.382	7.44
684.708	7.45
685.034	7.44
685.36	7.41
685.686	7.43
686.012	7.45
686.339	7.48
686.664	7.48
686.99	7.48
687.316	7.5
687.642	7.54
687.968	7.55
688.294	7.54
688.619	7.54
688.945	7.55
689.271	7.57
689.596	7.6
689.922	7.63
690.247	7.62
690.573	7.62
690.898	7.65
691.224	7.68
691.549	7.68
691.874	7.67
692.2	7.72
692.525	7.72
692.85	7.72
693.175	7.73
693.5	7.77
693.825	7.75
694.15	7.76
694.475	7.77
694.8	7.77
695.125	7.8
695.45	7.81
695.775	7.81
696.099	7.81
696.424	7.84
696.749	7.85
697.073	7.85
697.398	7.86
697.723	7.86
698.047	7.86
698.372	7.87
698.696	7.88
699.02	7.86
699.345	7.85
699.669	7.85
699.993	7.84
700.318	7.83
700.642	7.84
700.966	7.84
701.29	7.83
701.614	7.83
701.938	7.82
702.262	7.85
702.586	7.89
702.91	7.89
703.234	7.9
703.557	7.9
703.881	7.91
704.205	7.92
704.529	7.93
704.852	7.92
705.176	7.93
705.499	7.94
705.823	7.97
706.146	7.98
706.47	7.98
706.793	8.02
707.117	8.03
707.44	8.01
707.763	8.03
708.086	8.06
708.409	8.07
708.733	8.1
709.056	8.09
709.379	8.06
709.702	8.11
710.025	8.1
710.348	8.1
710.671	8.11
710.993	8.11
711.316	8.06
711.639	8.08
711.962	8.1
712.284	8.12
712.607	8.16
712.93	8.2
713.252	8.22
713.575	8.22
713.897	8.25
714.22	8.3
714.542	8.31
714.864	8.32
715.187	8.33
715.509	8.33
715.831	8.32
716.153	8.34
716.475	8.33
716.798	8.32
717.12	8.31
717.442	8.32
717.764	8.33
718.085	8.42
718.407	8.39
718.729	8.4
719.051	8.39
719.373	8.37
719.695	8.34
720.016	8.34
720.338	8.32
720.659	8.31
720.981	8.34
721.302	8.37
721.624	8.36
721.945	8.35
722.267	8.39
722.588	8.43
722.909	8.44
723.231	8.46
723.552	8.51
723.873	8.56
724.194	8.54
724.515	8.6
724.836	8.58
725.157	8.62
725.478	8.62
725.799	8.64
726.12	8.65
726.441	8.69
726.762	8.71
727.083	8.75
727.403	8.77
727.724	8.71
728.045	8.72
728.365	8.8
728.686	8.83
729.006	8.81
729.327	8.8
729.647	8.81
729.967	8.78
730.288	8.78
730.608	8.8
730.928	8.86
731.249	8.85
731.569	8.83
731.889	8.87
732.209	8.86
732.529	8.87
732.849	8.88
733.169	8.88
733.489	8.87
733.809	8.88
734.129	8.89
734.448	8.92
734.768	8.88
735.088	8.86
735.408	8.87
735.727	8.87
736.047	8.92
736.366	8.92
736.686	8.93
737.005	8.92
737.325	8.89
737.644	8.91
737.963	8.91
738.283	8.92
738.602	8.9
738.921	8.94
739.24	8.95
739.56	8.97
739.879	9
740.198	9.09
740.517	9.08
740.836	9.09
741.155	9.08
741.473	9.13
741.792	9.12
742.111	9.15
742.43	9.18
742.748	9.11
743.067	9.15
743.386	9.15
743.704	9.17
744.023	9.23
744.341	9.2
744.66	9.23
744.978	9.24
745.297	9.26
745.615	9.27
745.933	9.28
746.252	9.29
746.57	9.25
746.888	9.23
747.206	9.25
747.524	9.27
747.842	9.35
748.16	9.35
748.478	9.38
748.796	9.34
749.114	9.35
749.432	9.37
749.749	9.34
750.067	9.38
750.385	9.39
750.703	9.32
751.02	9.29
751.338	9.3
751.655	9.35
751.973	9.35
752.29	9.29
752.608	9.31
752.925	9.33
753.242	9.38
753.56	9.38
753.877	9.4
754.194	9.43
754.511	9.43
754.828	9.42
755.145	9.45
755.462	9.47
755.779	9.45
756.096	9.52
756.413	9.56
756.73	9.63
757.047	9.64
757.364	9.77
757.68	9.85
757.997	9.83
758.314	9.79
758.63	9.8
758.947	9.89
759.264	9.9
759.58	9.9
759.896	9.88
760.213	9.9
760.529	9.84
760.846	9.81
761.162	9.85
761.478	9.87
761.794	9.84
762.11	9.85
762.426	9.87
762.743	9.85
763.059	9.87
763.375	9.84
763.69	9.87
764.006	9.85
764.322	9.86
764.638	9.87
764.954	9.92
765.27	9.96
765.585	9.93
765.901	9.98
766.216	9.91
766.532	9.91
766.848	9.91
767.163	10
767.478	10
767.794	9.95
768.109	9.93
768.424	9.97
768.74	10.01
769.055	10.03
769.37	10.04
769.685	10.05
770	10.07
770.315	10.07
770.63	10.08
770.945	10.06
771.26	10.07
771.575	10
771.89	9.98
772.205	10.02
772.52	10.04
772.834	10.11
773.149	10.1
773.464	10.18
773.778	10.12
774.093	10.17
774.407	10.3
774.722	10.42
775.036	10.35
775.351	10.29
775.665	10.34
775.979	10.31
776.293	10.25
776.608	10.21
776.922	10.15
777.236	10.03
777.55	10.04
777.864	10.06
778.178	10.15
778.492	10.13
778.806	10.03
779.12	10.06
779.434	10.07
779.747	10.09
780.061	10.11
780.375	10.1
780.689	10.09
781.002	10.04
781.316	9.98
781.629	10.07
781.943	10.14
782.256	10.16
782.57	10.28
782.883	10.33
783.196	10.37
783.51	10.45
783.823	10.55
784.136	10.59
784.449	10.69
784.762	10.64
785.075	10.64
785.388	10.68
785.701	10.65
786.014	10.72
786.327	10.8
786.64	10.76
786.953	10.73
787.266	10.83
787.578	10.79
787.891	10.82
788.204	10.77
788.516	10.74
788.829	10.78
789.141	10.73
789.454	10.68
789.766	10.74
790.079	10.76
790.391	10.77
790.703	10.83
791.016	10.71
791.328	10.82
791.64	10.93
791.952	11
792.264	10.98
792.576	10.91
792.888	10.84
793.2	10.79
793.512	11.03
793.824	10.89
794.136	10.85
794.448	10.93
794.76	11.06
795.071	11.13
795.383	11.05
795.695	11.15
796.006	11.3
796.318	11.29
796.629	11.33
796.941	11.43
797.252	11.42
797.564	11.52
797.875	11.41
798.186	11.32
798.497	11.33
798.809	11.23
799.12	11.38
799.431	11.4
799.742	11.51
800.053	11.27
800.364	11.54
800.675	11.67
800.986	11.73
801.297	11.74
801.608	11.79
801.918	11.88
802.229	11.98
802.54	11.84
802.851	11.91
803.161	11.8
803.472	11.7
803.782	11.66
804.093	11.56
804.403	11.73
804.714	11.9
805.024	11.9
805.334	12.08
805.645	11.96
805.955	12.11
806.265	12.07
806.575	12.2
806.885	12.06
807.195	12.08
807.505	11.99
807.815	12
808.125	11.93
808.435	12
808.745	11.91
809.055	11.96
809.365	12
809.674	12.08
809.984	12.17
810.294	12.3
810.603	12.42
810.913	12.44
811.222	12.41
811.532	12.5
811.841	12.59
812.151	12.68
812.46	12.59
812.769	12.66
813.079	12.71
813.388	12.65
813.697	12.63
814.006	12.77
814.315	12.8
814.624	12.81
814.933	12.85
815.242	12.78
815.551	12.93
815.86	12.83
816.169	12.86
816.478	12.91
816.786	12.62
817.095	12.56
817.404	12.64
817.712	12.58
818.021	12.5
818.33	12.39
818.638	12.4
818.947	12.36
819.255	12.3
819.563	12.28
819.872	12.32
820.18	12.31
820.488	12.3
820.796	12.25
821.105	12.27
821.413	12.22
821.721	12.31
822.029	12.36
822.337	12.43
822.645	12.44
822.953	12.46
823.26	12.55
823.568	12.59
823.876	12.55
824.184	12.57
824.491	12.59
824.799	12.6
825.107	12.62
825.414	12.63
825.722	12.68
826.029	12.68
826.337	12.71
826.644	12.71
826.951	12.73
827.259	12.78
827.566	12.83
827.873	12.88
828.18	12.8
828.488	12.79
828.795	12.76
829.102	12.81
829.409	12.8
829.716	12.79
830.023	12.78
830.329	12.85
830.636	12.88
830.943	12.94
831.25	12.95
831.557	12.88
831.863	12.93
832.17	12.89
832.476	13.01
832.783	13.02
833.089	13.05
833.396	12.97
833.702	12.96
834.009	12.91
834.315	12.9
834.621	13.04
834.928	13.02
835.234	13.07
835.54	13.1
835.846	13.11
836.152	13.15
836.458	13.16
836.764	13.11
837.07	13.12
837.376	12.95
837.682	12.96
837.988	13.18
838.293	13.2
838.599	13.25
838.905	13.12
839.211	13.2
839.516	13.38
839.822	13.56
840.127	13.55
840.433	13.6
840.738	13.67
841.044	13.72
841.349	13.75
841.654	13.74
841.959	13.64
842.265	13.57
842.57	13.57
842.875	13.66
843.18	14
843.485	14.04
843.79	14.29
844.095	14.41
844.4	14.18
844.705	14.28
845.01	14.26
845.315	14.53
845.619	14.54
845.924	14.24
846.229	13.99
846.533	14.24
846.838	14.39
847.142	14.35
847.447	14.35
847.751	14.57
848.056	14.71
848.36	14.74
848.664	14.75
848.969	14.73
849.273	14.74
849.577	14.15
849.881	14.28
850.185	14.31
850.489	14.37
850.794	14.47
851.097	14.19
851.401	14.64
851.705	14.37
852.009	14.3
852.313	14.29
852.617	14.71
852.92	14.42
853.224	14.66
853.528	14.98
853.831	15.05
854.135	14.59
854.438	14.41
854.742	14.86
855.045	14.93
855.349	15.06
855.652	15.23
855.955	15.2
856.259	14.57
856.562	15.02
856.865	15.09
857.168	15.06
857.471	14.94
857.774	14.52
858.077	14.47
858.38	14.21
858.683	14.26
858.986	14.14
859.289	14.69
859.592	14.4
859.894	14.52
860.197	14.54
860.5	14.82
860.802	14.97
861.105	14.49
861.407	15.04
861.71	14.85
862.012	14.66
862.315	15.16
862.617	15.53
862.919	15.21
863.222	15.39
863.524	15.39
863.826	16.21
864.128	16.15
864.43	16.25
864.732	16.92
865.034	17.3
865.336	17.27
865.638	17.03
865.94	16.76
866.242	16.32
866.544	16.32
866.846	16.5
867.147	16.41
867.449	16.43
867.751	16.26
868.052	16.35
868.354	16.28
868.655	16.08
868.957	16.1
869.258	15.94
869.56	15.37
869.861	15.52
870.162	15.22
870.463	15.76
870.765	15.95
871.066	15.53
871.367	14.97
871.668	15.2
871.969	15.29
872.27	15.52
872.571	15.52
872.872	15.62
873.173	15.6
873.473	15.56
873.774	15.75
874.075	15.67
874.376	15.81
874.676	15.85
874.977	15.84
875.277	15.95
875.578	15.94
875.878	16.28
876.179	16.27
876.479	16.12
876.78	15.74
877.08	15.63
877.38	15.77
877.68	16.33
877.981	16.05
878.281	15.92
878.581	16.05
