Data from UWBM53665_Reflection_00014.txt Node
Date: Sun May 02 13:14:39 EDT 2021
User: vgr7
Spectrometer: USB2G7710
Scans to average: 10
Trigger mode: 4
Integration Time (sec): 1.000000E-1
Electric dark correction enabled: true
Boxcar width: 20
XAxis mode: Wavelengths
Number of Pixels in Spectrum: 2048
>>>>>Begin Spectral Data<<<<<
177.721	99.79
178.105	100.15
178.488	99.8
178.871	100.09
179.254	97.91
179.636	94.47
180.019	92.16
180.402	90.29
180.785	87.12
181.168	84.46
181.55	80.2
181.933	118.48
182.316	119.79
182.698	120.93
183.081	123.05
183.463	124.58
183.846	125.38
184.228	125.83
184.611	128.98
184.993	132.36
185.376	134.38
185.758	-130.37
186.14	-65.72
186.522	-23.65
186.904	-6.69
187.287	5
187.669	9.85
188.051	8.78
188.433	12.12
188.815	11.93
189.197	9.62
189.579	10.26
189.961	11.62
190.342	8.15
190.724	11.85
191.106	11.95
191.488	12.05
191.869	6.9
192.251	6.88
192.633	3.07
193.014	2.92
193.396	1.62
193.777	9.33
194.159	9.21
194.54	6.13
194.922	7.08
195.303	10.12
195.684	9.78
196.065	9.52
196.447	7.74
196.828	6.46
197.209	7.9
197.59	-1.57
197.971	-1.6
198.352	0.96
198.733	3.02
199.114	2.44
199.495	2.29
199.876	3.04
200.257	2.57
200.638	2.2
201.018	-2.41
201.399	-4.66
201.78	-6.7
202.16	-9.36
202.541	-7.23
202.922	-10.19
203.302	-14
203.683	-13.69
204.063	-14.54
204.444	-13.99
204.824	-10.3
205.204	-9.51
205.585	0.48
205.965	0.64
206.345	1.57
206.725	-4.61
207.106	-4.69
207.486	-4.31
207.866	-3.67
208.246	-2.52
208.626	0.48
209.006	6.21
209.386	1.68
209.766	0.74
210.145	0.47
210.525	-0.57
210.905	0.15
211.285	1.67
211.664	0.64
212.044	2.16
212.424	2.79
212.803	-3.01
213.183	-1.04
213.562	-1.21
213.942	-3.04
214.321	-6.17
214.701	-5.86
215.08	-4.48
215.459	-4.68
215.838	-4.08
216.218	-4.67
216.597	-6.68
216.976	-8.73
217.355	-7.12
217.734	-6.82
218.113	-7
218.492	-4.67
218.871	-4.08
219.25	-3.43
219.629	-4.57
220.008	-4.92
220.387	-4.1
220.766	-2.24
221.144	-4.06
221.523	-1.35
221.902	-0.11
222.28	1.53
222.659	3.28
223.037	3.23
223.416	3.91
223.794	4.66
224.173	4.21
224.551	4.04
224.929	3.86
225.308	5.19
225.686	4.81
226.064	5.7
226.442	5.76
226.821	5.43
227.199	5.41
227.577	5.02
227.955	4.62
228.333	4.74
228.711	4.88
229.089	5.5
229.467	5.53
229.845	6.54
230.222	6.63
230.6	6.85
230.978	7.07
231.356	6.47
231.733	6.68
232.111	6.77
232.488	6.59
232.866	6.54
233.243	6.27
233.621	6.4
233.998	6.12
234.376	6.21
234.753	6.21
235.13	6.29
235.508	6.86
235.885	6.83
236.262	6.72
236.639	6.81
237.016	6.65
237.393	6.57
237.77	6.34
238.147	6.17
238.524	6.11
238.901	6.06
239.278	6.12
239.655	6.05
240.032	5.95
240.409	6
240.785	5.89
241.162	5.99
241.539	5.89
241.915	5.87
242.292	5.86
242.668	5.83
243.045	5.81
243.421	5.72
243.798	5.69
244.174	5.68
244.551	5.59
244.927	5.42
245.303	5.35
245.679	5.33
246.056	5.31
246.432	5.25
246.808	5.06
247.184	5.07
247.56	5.07
247.936	5.07
248.312	5.09
248.688	5.16
249.064	5.11
249.44	5.09
249.815	5.1
250.191	5.05
250.567	5.03
250.943	5.09
251.318	5.08
251.694	5.01
252.069	4.97
252.445	4.97
252.82	5.06
253.196	5.07
253.571	5.03
253.947	5.11
254.322	5.09
254.697	5.21
255.073	5.2
255.448	5.19
255.823	5.13
256.198	5.1
256.573	4.93
256.948	4.93
257.323	4.94
257.698	4.88
258.073	4.85
258.448	4.74
258.823	4.71
259.198	4.71
259.573	4.72
259.948	4.77
260.322	4.72
260.697	4.72
261.072	4.72
261.446	4.7
261.821	4.68
262.195	4.63
262.57	4.59
262.944	4.57
263.319	4.54
263.693	4.54
264.067	4.55
264.442	4.64
264.816	4.62
265.19	4.58
265.564	4.62
265.938	4.59
266.313	4.62
266.687	4.58
267.061	4.58
267.435	4.57
267.809	4.55
268.183	4.52
268.556	4.53
268.93	4.53
269.304	4.52
269.678	4.47
270.051	4.44
270.425	4.45
270.799	4.46
271.172	4.47
271.546	4.48
271.919	4.47
272.293	4.43
272.666	4.44
273.04	4.46
273.413	4.4
273.787	4.39
274.16	4.4
274.533	4.43
274.906	4.41
275.279	4.42
275.653	4.41
276.026	4.39
276.399	4.35
276.772	4.34
277.145	4.38
277.518	4.4
277.891	4.42
278.263	4.42
278.636	4.44
279.009	4.46
279.382	4.43
279.755	4.38
280.127	4.42
280.5	4.45
280.872	4.45
281.245	4.56
281.617	4.59
281.99	4.61
282.362	4.65
282.735	4.65
283.107	4.66
283.479	4.67
283.852	4.7
284.224	4.74
284.596	4.72
284.968	4.63
285.34	4.64
285.713	4.62
286.085	4.57
286.457	4.6
286.829	4.59
287.201	4.61
287.572	4.69
287.944	4.72
288.316	4.76
288.688	4.83
289.06	4.85
289.431	4.88
289.803	4.9
290.175	4.94
290.546	4.99
290.918	5.03
291.289	5.03
291.661	5.08
292.032	5.06
292.403	5.11
292.775	5.25
293.146	5.29
293.517	5.36
293.889	5.46
294.26	5.49
294.631	5.57
295.002	5.66
295.373	5.73
295.744	5.75
296.115	5.79
296.486	5.79
296.857	5.84
297.228	5.89
297.599	5.93
297.97	5.97
298.34	6.04
298.711	6.05
299.082	6.1
299.452	6.17
299.823	6.26
300.194	6.33
300.564	6.38
300.935	6.45
301.305	6.48
301.676	6.52
302.046	6.59
302.416	6.67
302.787	6.74
303.157	6.74
303.527	6.82
303.897	6.91
304.267	6.99
304.637	7.08
305.008	7.18
305.378	7.27
305.748	7.35
306.117	7.5
306.487	7.65
306.857	7.8
307.227	7.9
307.597	7.98
307.967	8.05
308.336	8.13
308.706	8.22
309.076	8.31
309.445	8.37
309.815	8.32
310.184	8.39
310.554	8.41
310.923	8.53
311.293	8.63
311.662	8.7
312.031	8.76
312.401	8.83
312.77	8.89
313.139	8.96
313.508	9.05
313.877	9.07
314.246	9.14
314.616	9.19
314.985	9.21
315.353	9.3
315.722	9.37
316.091	9.45
316.46	9.54
316.829	9.64
317.198	9.74
317.567	9.94
317.935	10.04
318.304	10.19
318.672	10.29
319.041	10.37
319.41	10.45
319.778	10.55
320.147	10.66
320.515	10.76
320.883	10.82
321.252	10.84
321.62	10.96
321.988	11.02
322.357	11.09
322.725	11.22
323.093	11.27
323.461	11.33
323.829	11.4
324.197	11.44
324.565	11.5
324.933	11.58
325.301	11.61
325.669	11.67
326.037	11.71
326.405	11.71
326.772	11.76
327.14	11.8
327.508	11.83
327.875	11.87
328.243	11.93
328.61	11.93
328.978	11.98
329.346	12.02
329.713	12.04
330.08	12.09
330.448	12.12
330.815	12.12
331.182	12.16
331.55	12.19
331.917	12.25
332.284	12.27
332.651	12.31
333.018	12.34
333.385	12.36
333.752	12.41
334.119	12.45
334.486	12.5
334.853	12.51
335.22	12.53
335.587	12.54
335.954	12.57
336.32	12.61
336.687	12.63
337.054	12.65
337.42	12.68
337.787	12.69
338.153	12.74
338.52	12.79
338.886	12.83
339.253	12.84
339.619	12.84
339.986	12.82
340.352	12.83
340.718	12.86
341.084	12.87
341.451	12.87
341.817	12.86
342.183	12.86
342.549	12.89
342.915	12.9
343.281	12.91
343.647	12.92
344.013	12.94
344.379	12.95
344.745	12.95
345.11	12.94
345.476	12.95
345.842	12.96
346.208	12.93
346.573	12.93
346.939	12.93
347.304	12.92
347.67	12.91
348.035	12.92
348.401	12.89
348.766	12.89
349.132	12.89
349.497	12.89
349.862	12.88
350.228	12.88
350.593	12.87
350.958	12.84
351.323	12.81
351.688	12.8
352.053	12.76
352.418	12.74
352.783	12.7
353.148	12.67
353.513	12.62
353.878	12.58
354.243	12.55
354.608	12.5
354.972	12.48
355.337	12.44
355.702	12.38
356.066	12.35
356.431	12.3
356.795	12.26
357.16	12.21
357.524	12.16
357.889	12.12
358.253	12.07
358.618	12.03
358.982	12
359.346	11.97
359.71	11.92
360.075	11.88
360.439	11.84
360.803	11.79
361.167	11.73
361.531	11.69
361.895	11.65
362.259	11.6
362.623	11.55
362.987	11.49
363.351	11.45
363.714	11.4
364.078	11.33
364.442	11.28
364.806	11.23
365.169	11.15
365.533	11.08
365.896	11
366.26	10.94
366.623	10.85
366.987	10.79
367.35	10.72
367.714	10.66
368.077	10.58
368.44	10.51
368.803	10.43
369.167	10.35
369.53	10.27
369.893	10.19
370.256	10.1
370.619	10.02
370.982	9.93
371.345	9.83
371.708	9.75
372.071	9.66
372.434	9.58
372.797	9.5
373.159	9.43
373.522	9.34
373.885	9.26
374.247	9.16
374.61	9.07
374.973	8.99
375.335	8.89
375.698	8.81
376.06	8.74
376.423	8.65
376.785	8.57
377.147	8.47
377.51	8.4
377.872	8.32
378.234	8.24
378.596	8.18
378.958	8.1
379.321	8.03
379.683	7.96
380.045	7.88
380.407	7.81
380.769	7.74
381.13	7.67
381.492	7.61
381.854	7.55
382.216	7.49
382.578	7.42
382.939	7.37
383.301	7.3
383.663	7.24
384.024	7.18
384.386	7.12
384.747	7.06
385.109	6.99
385.47	6.93
385.832	6.88
386.193	6.82
386.554	6.76
386.916	6.71
387.277	6.66
387.638	6.62
387.999	6.57
388.36	6.53
388.721	6.48
389.082	6.44
389.443	6.4
389.804	6.36
390.165	6.32
390.526	6.28
390.887	6.23
391.248	6.19
391.609	6.15
391.969	6.12
392.33	6.08
392.691	6.04
393.051	6
393.412	5.95
393.772	5.91
394.133	5.87
394.493	5.82
394.854	5.79
395.214	5.74
395.574	5.69
395.935	5.65
396.295	5.6
396.655	5.56
397.015	5.52
397.376	5.47
397.736	5.43
398.096	5.39
398.456	5.35
398.816	5.33
399.176	5.28
399.535	5.25
399.895	5.22
400.255	5.18
400.615	5.15
400.975	5.12
401.334	5.08
401.694	5.05
402.054	5.02
402.413	4.98
402.773	4.95
403.132	4.92
403.492	4.89
403.851	4.87
404.211	4.84
404.57	4.82
404.929	4.81
405.288	4.78
405.648	4.77
406.007	4.75
406.366	4.74
406.725	4.73
407.084	4.71
407.443	4.69
407.802	4.66
408.161	4.64
408.52	4.62
408.879	4.6
409.238	4.59
409.596	4.57
409.955	4.57
410.314	4.55
410.673	4.53
411.031	4.53
411.39	4.52
411.748	4.51
412.107	4.5
412.465	4.5
412.824	4.51
413.182	4.51
413.54	4.52
413.899	4.53
414.257	4.54
414.615	4.57
414.974	4.59
415.332	4.61
415.69	4.64
416.048	4.65
416.406	4.69
416.764	4.7
417.122	4.72
417.48	4.74
417.838	4.76
418.195	4.77
418.553	4.78
418.911	4.78
419.269	4.77
419.626	4.76
419.984	4.74
420.342	4.71
420.699	4.68
421.057	4.65
421.414	4.62
421.772	4.6
422.129	4.58
422.486	4.57
422.844	4.56
423.201	4.55
423.558	4.54
423.915	4.53
424.273	4.52
424.63	4.51
424.987	4.5
425.344	4.49
425.701	4.48
426.058	4.47
426.415	4.46
426.772	4.44
427.128	4.43
427.485	4.4
427.842	4.38
428.199	4.36
428.555	4.34
428.912	4.31
429.269	4.28
429.625	4.25
429.982	4.22
430.338	4.18
430.695	4.15
431.051	4.11
431.407	4.08
431.764	4.06
432.12	4.03
432.476	4.02
432.832	4.01
433.189	4.01
433.545	4.01
433.901	4.02
434.257	4.04
434.613	4.06
434.969	4.08
435.325	4.11
435.681	4.14
436.036	4.16
436.392	4.18
436.748	4.19
437.104	4.19
437.459	4.21
437.815	4.22
438.171	4.24
438.526	4.26
438.882	4.29
439.237	4.32
439.593	4.35
439.948	4.38
440.304	4.41
440.659	4.44
441.014	4.45
441.369	4.48
441.725	4.49
442.08	4.51
442.435	4.52
442.79	4.52
443.145	4.52
443.5	4.52
443.855	4.51
444.21	4.51
444.565	4.5
444.92	4.49
445.275	4.48
445.629	4.47
445.984	4.46
446.339	4.45
446.693	4.44
447.048	4.41
447.403	4.4
447.757	4.37
448.112	4.34
448.466	4.32
448.82	4.3
449.175	4.27
449.529	4.25
449.883	4.23
450.238	4.19
450.592	4.19
450.946	4.18
451.3	4.17
451.654	4.17
452.008	4.17
452.362	4.17
452.716	4.17
453.07	4.17
453.424	4.16
453.778	4.15
454.132	4.12
454.486	4.11
454.839	4.09
455.193	4.07
455.547	4.06
455.9	4.03
456.254	4.01
456.607	3.98
456.961	3.95
457.314	3.93
457.668	3.92
458.021	3.92
458.375	3.91
458.728	3.91
459.081	3.91
459.434	3.92
459.787	3.93
460.141	3.94
460.494	3.95
460.847	3.96
461.2	3.96
461.553	3.97
461.906	3.98
462.259	3.99
462.611	4
462.964	4.01
463.317	4.02
463.67	4.03
464.022	4.04
464.375	4.05
464.728	4.06
465.08	4.06
465.433	4.07
465.785	4.07
466.138	4.06
466.49	4.06
466.843	4.05
467.195	4.04
467.547	4.03
467.899	4.01
468.252	4
468.604	3.98
468.956	3.97
469.308	3.96
469.66	3.97
470.012	3.97
470.364	3.98
470.716	3.99
471.068	4.01
471.42	4.04
471.772	4.07
472.123	4.09
472.475	4.11
472.827	4.12
473.178	4.14
473.53	4.15
473.882	4.17
474.233	4.19
474.585	4.24
474.936	4.3
475.288	4.38
475.639	4.49
475.99	4.62
476.342	4.77
476.693	4.93
477.044	5.09
477.395	5.25
477.746	5.42
478.097	5.58
478.448	5.75
478.8	5.91
479.15	6.06
479.501	6.19
479.852	6.32
480.203	6.43
480.554	6.55
480.905	6.66
481.255	6.76
481.606	6.86
481.957	6.94
482.307	7.03
482.658	7.11
483.009	7.19
483.359	7.27
483.709	7.34
484.06	7.41
484.41	7.49
484.761	7.55
485.111	7.62
485.461	7.68
485.811	7.74
486.162	7.79
486.512	7.84
486.862	7.88
487.212	7.9
487.562	7.93
487.912	7.94
488.262	7.94
488.612	7.94
488.961	7.92
489.311	7.89
489.661	7.82
490.011	7.74
490.36	7.65
490.71	7.53
491.06	7.41
491.409	7.27
491.759	7.14
492.108	7
492.458	6.86
492.807	6.71
493.157	6.56
493.506	6.42
493.855	6.29
494.204	6.17
494.554	6.06
494.903	5.96
495.252	5.86
495.601	5.77
495.95	5.69
496.299	5.61
496.648	5.54
496.997	5.47
497.346	5.42
497.695	5.37
498.043	5.33
498.392	5.29
498.741	5.26
499.09	5.22
499.438	5.2
499.787	5.18
500.135	5.18
500.484	5.18
500.832	5.19
501.181	5.22
501.529	5.26
501.878	5.31
502.226	5.38
502.574	5.46
502.923	5.54
503.271	5.64
503.619	5.74
503.967	5.83
504.315	5.94
504.663	6.04
505.011	6.14
505.359	6.26
505.707	6.37
506.055	6.49
506.403	6.62
506.751	6.76
507.098	6.89
507.446	7.04
507.794	7.18
508.141	7.34
508.489	7.52
508.837	7.7
509.184	7.89
509.531	8.08
509.879	8.29
510.226	8.51
510.574	8.75
510.921	8.99
511.268	9.25
511.616	9.51
511.963	9.78
512.31	10.06
512.657	10.34
513.004	10.62
513.351	10.89
513.698	11.15
514.045	11.4
514.392	11.66
514.739	11.9
515.086	12.13
515.432	12.37
515.779	12.61
516.126	12.86
516.473	13.13
516.819	13.42
517.166	13.73
517.512	14.07
517.859	14.43
518.205	14.81
518.552	15.22
518.898	15.66
519.245	16.16
519.591	16.75
519.937	17.43
520.283	18.21
520.629	19.05
520.976	19.93
521.322	20.84
521.668	21.78
522.014	22.72
522.36	23.67
522.706	24.6
523.052	25.5
523.398	26.37
523.743	27.17
524.089	27.91
524.435	28.62
524.781	29.32
525.126	30
525.472	30.68
525.817	31.35
526.163	32.01
526.509	32.65
526.854	33.29
527.199	33.93
527.545	34.56
527.89	35.22
528.235	35.86
528.581	36.47
528.926	37.05
529.271	37.61
529.616	38.14
529.961	38.66
530.306	39.16
530.651	39.62
530.996	40.04
531.341	40.43
531.686	40.79
532.031	41.14
532.376	41.52
532.721	41.93
533.065	42.37
533.41	42.83
533.755	43.23
534.099	43.59
534.444	43.91
534.788	44.19
535.133	44.45
535.477	44.68
535.822	44.87
536.166	45.01
536.51	45.08
536.855	45.08
537.199	45.03
537.543	44.98
537.887	44.97
538.231	45
538.576	45.02
538.92	45.03
539.264	45.02
539.608	44.98
539.951	44.91
540.295	44.84
540.639	44.74
540.983	44.62
541.327	44.48
541.671	44.31
542.014	44.18
542.358	44.06
542.701	44.04
543.045	44.11
543.389	44.21
543.732	44.33
544.075	44.49
544.419	44.65
544.762	44.82
545.105	45.02
545.449	45.22
545.792	45.45
546.135	45.66
546.478	45.82
546.821	45.92
547.165	45.93
547.508	45.89
547.851	45.78
548.194	45.62
548.536	45.4
548.879	45.13
549.222	44.84
549.565	44.53
549.908	44.23
550.25	43.96
550.593	43.76
550.936	43.65
551.278	43.61
551.621	43.61
551.963	43.65
552.306	43.7
552.648	43.82
552.991	43.94
553.333	44.09
553.675	44.29
554.017	44.52
554.36	44.78
554.702	45.09
555.044	45.42
555.386	45.83
555.728	46.29
556.07	46.65
556.412	47.05
556.754	47.35
557.096	47.57
557.438	47.79
557.78	48.02
558.121	48.24
558.463	48.47
558.805	48.68
559.147	48.91
559.488	49.13
559.83	49.33
560.171	49.55
560.513	49.76
560.854	49.96
561.196	50.16
561.537	50.36
561.878	50.55
562.22	50.73
562.561	50.9
562.902	51.08
563.243	51.26
563.584	51.44
563.925	51.62
564.266	51.79
564.607	51.96
564.948	52.13
565.289	52.29
565.63	52.46
565.971	52.61
566.312	52.77
566.653	52.92
566.993	53.07
567.334	53.22
567.675	53.36
568.015	53.51
568.356	53.63
568.696	53.77
569.037	53.89
569.377	54.01
569.718	54.12
570.058	54.25
570.398	54.36
570.739	54.47
571.079	54.58
571.419	54.68
571.759	54.78
572.099	54.87
572.439	54.96
572.779	55.06
573.119	55.15
573.459	55.25
573.799	55.35
574.139	55.43
574.479	55.53
574.819	55.62
575.158	55.71
575.498	55.79
575.838	55.87
576.177	55.95
576.517	56.04
576.856	56.12
577.196	56.2
577.535	56.28
577.875	56.36
578.214	56.45
578.553	56.53
578.893	56.62
579.232	56.7
579.571	56.78
579.91	56.86
580.25	56.94
580.589	57.01
580.928	57.1
581.267	57.18
581.606	57.27
581.945	57.35
582.283	57.43
582.622	57.52
582.961	57.6
583.3	57.69
583.639	57.78
583.977	57.85
584.316	57.93
584.654	58.02
584.993	58.1
585.332	58.17
585.67	58.25
586.008	58.33
586.347	58.41
586.685	58.49
587.024	58.56
587.362	58.62
587.7	58.7
588.038	58.78
588.376	58.85
588.715	58.92
589.053	59
589.391	59.06
589.729	59.14
590.067	59.22
590.404	59.3
590.742	59.37
591.08	59.44
591.418	59.5
591.756	59.56
592.093	59.62
592.431	59.67
592.769	59.72
593.106	59.78
593.444	59.83
593.781	59.87
594.119	59.92
594.456	59.97
594.793	60
595.131	60.06
595.468	60.11
595.805	60.16
596.143	60.23
596.48	60.27
596.817	60.33
597.154	60.4
597.491	60.47
597.828	60.53
598.165	60.59
598.502	60.65
598.839	60.7
599.176	60.75
599.512	60.81
599.849	60.86
600.186	60.91
600.523	60.95
600.859	60.99
601.196	61.04
601.532	61.08
601.869	61.12
602.205	61.17
602.542	61.2
602.878	61.24
603.215	61.28
603.551	61.33
603.887	61.36
604.223	61.4
604.56	61.43
604.896	61.47
605.232	61.5
605.568	61.54
605.904	61.57
606.24	61.6
606.576	61.62
606.912	61.66
607.248	61.68
607.583	61.71
607.919	61.74
608.255	61.77
608.591	61.79
608.926	61.81
609.262	61.84
609.597	61.87
609.933	61.9
610.268	61.94
610.604	61.96
610.939	61.97
611.275	61.97
611.61	61.99
611.945	62.01
612.281	62.02
612.616	62.04
612.951	62.06
613.286	62.08
613.621	62.1
613.956	62.11
614.291	62.15
614.626	62.17
614.961	62.2
615.296	62.21
615.631	62.23
615.966	62.24
616.3	62.28
616.635	62.31
616.97	62.34
617.304	62.35
617.639	62.37
617.973	62.39
618.308	62.42
618.642	62.45
618.977	62.48
619.311	62.49
619.646	62.52
619.98	62.56
620.314	62.6
620.648	62.63
620.983	62.65
621.317	62.68
621.651	62.69
621.985	62.72
622.319	62.75
622.653	62.77
622.987	62.78
623.321	62.79
623.655	62.8
623.988	62.81
624.322	62.84
624.656	62.87
624.99	62.89
625.323	62.92
625.657	62.93
625.99	62.97
626.324	62.98
626.657	63
626.991	63.02
627.324	63.04
627.658	63.07
627.991	63.07
628.324	63.08
628.657	63.09
628.991	63.09
629.324	63.12
629.657	63.14
629.99	63.16
630.323	63.18
630.656	63.19
630.989	63.2
631.322	63.22
631.655	63.23
631.987	63.25
632.32	63.26
632.653	63.28
632.986	63.29
633.318	63.3
633.651	63.32
633.984	63.34
634.316	63.35
634.649	63.36
634.981	63.38
635.313	63.4
635.646	63.42
635.978	63.43
636.31	63.45
636.643	63.47
636.975	63.48
637.307	63.52
637.639	63.56
637.971	63.57
638.303	63.59
638.635	63.6
638.967	63.61
639.299	63.62
639.631	63.63
639.963	63.64
640.295	63.65
640.626	63.66
640.958	63.66
641.29	63.67
641.621	63.7
641.953	63.72
642.285	63.75
642.616	63.78
642.948	63.78
643.279	63.79
643.61	63.79
643.942	63.82
644.273	63.83
644.604	63.85
644.936	63.88
645.267	63.88
645.598	63.89
645.929	63.9
646.26	63.91
646.591	63.92
646.922	63.94
647.253	63.92
647.584	63.94
647.915	63.96
648.245	63.98
648.576	63.99
648.907	64
649.238	64
649.568	64.01
649.899	64.02
650.229	64.04
650.56	64.04
650.89	64.04
651.221	64.04
651.551	64.06
651.882	64.04
652.212	64.04
652.542	64.04
652.872	64.06
653.203	64.07
653.533	64.09
653.863	64.11
654.193	64.12
654.523	64.12
654.853	64.13
655.183	64.14
655.513	64.15
655.843	64.16
656.172	64.17
656.502	64.2
656.832	64.21
657.162	64.22
657.491	64.23
657.821	64.25
658.15	64.26
658.48	64.26
658.809	64.27
659.139	64.28
659.468	64.3
659.798	64.32
660.127	64.33
660.456	64.34
660.785	64.38
661.115	64.39
661.444	64.39
661.773	64.41
662.102	64.42
662.431	64.43
662.76	64.46
663.089	64.47
663.418	64.47
663.747	64.49
664.076	64.52
664.404	64.52
664.733	64.52
665.062	64.54
665.39	64.57
665.719	64.61
666.048	64.63
666.376	64.63
666.705	64.66
667.033	64.66
667.362	64.66
667.69	64.67
668.018	64.71
668.347	64.72
668.675	64.74
669.003	64.75
669.331	64.77
669.659	64.77
669.987	64.76
670.315	64.76
670.643	64.78
670.971	64.76
671.299	64.76
671.627	64.74
671.955	64.76
672.283	64.76
672.61	64.76
672.938	64.78
673.266	64.77
673.593	64.77
673.921	64.8
674.249	64.8
674.576	64.8
674.904	64.81
675.231	64.81
675.558	64.82
675.886	64.83
676.213	64.8
676.54	64.81
676.867	64.83
677.195	64.83
677.522	64.81
677.849	64.82
678.176	64.82
678.503	64.82
678.83	64.81
679.157	64.79
679.484	64.79
679.81	64.79
680.137	64.77
680.464	64.78
680.791	64.79
681.117	64.79
681.444	64.77
681.771	64.76
682.097	64.75
682.424	64.74
682.75	64.72
683.077	64.73
683.403	64.75
683.729	64.77
684.056	64.77
684.382	64.82
684.708	64.82
685.034	64.83
685.36	64.81
685.686	64.81
686.012	64.81
686.339	64.8
686.664	64.81
686.99	64.81
687.316	64.8
687.642	64.79
687.968	64.79
688.294	64.8
688.619	64.78
688.945	64.78
689.271	64.8
689.596	64.83
689.922	64.82
690.247	64.81
690.573	64.81
690.898	64.81
691.224	64.82
691.549	64.82
691.874	64.79
692.2	64.81
692.525	64.83
692.85	64.83
693.175	64.84
693.5	64.85
693.825	64.84
694.15	64.83
694.475	64.81
694.8	64.81
695.125	64.84
695.45	64.83
695.775	64.85
696.099	64.85
696.424	64.84
696.749	64.82
697.073	64.81
697.398	64.8
697.723	64.76
698.047	64.77
698.372	64.78
698.696	64.79
699.02	64.79
699.345	64.8
699.669	64.81
699.993	64.81
700.318	64.82
700.642	64.84
700.966	64.86
701.29	64.88
701.614	64.88
701.938	64.91
702.262	64.91
702.586	64.94
702.91	64.92
703.234	64.94
703.557	64.95
703.881	64.95
704.205	64.97
704.529	64.99
704.852	65.02
705.176	65.05
705.499	65.08
705.823	65.08
706.146	65.1
706.47	65.13
706.793	65.14
707.117	65.19
707.44	65.21
707.763	65.24
708.086	65.27
708.409	65.25
708.733	65.29
709.056	65.3
709.379	65.33
709.702	65.36
710.025	65.37
710.348	65.34
710.671	65.34
710.993	65.33
711.316	65.34
711.639	65.36
711.962	65.36
712.284	65.38
712.607	65.39
712.93	65.41
713.252	65.42
713.575	65.41
713.897	65.42
714.22	65.44
714.542	65.42
714.864	65.46
715.187	65.47
715.509	65.47
715.831	65.44
716.153	65.44
716.475	65.45
716.798	65.44
717.12	65.53
717.442	65.54
717.764	65.55
718.085	65.51
718.407	65.51
718.729	65.51
719.051	65.53
719.373	65.55
719.695	65.54
720.016	65.54
720.338	65.53
720.659	65.52
720.981	65.52
721.302	65.54
721.624	65.57
721.945	65.56
722.267	65.57
722.588	65.53
722.909	65.56
723.231	65.61
723.552	65.62
723.873	65.65
724.194	65.69
724.515	65.66
724.836	65.71
725.157	65.72
725.478	65.72
725.799	65.74
726.12	65.73
726.441	65.75
726.762	65.79
727.083	65.76
727.403	65.75
727.724	65.78
728.045	65.77
728.365	65.78
728.686	65.81
729.006	65.82
729.327	65.84
729.647	65.83
729.967	65.87
730.288	65.88
730.608	65.89
730.928	65.88
731.249	65.88
731.569	65.9
731.889	65.9
732.209	65.88
732.529	65.89
732.849	65.9
733.169	65.91
733.489	65.91
733.809	65.95
734.129	65.98
734.448	65.97
734.768	65.95
735.088	65.96
735.408	65.94
735.727	65.96
736.047	65.98
736.366	65.96
736.686	65.96
737.005	65.96
737.325	65.93
737.644	65.96
737.963	65.95
738.283	65.96
738.602	65.98
738.921	66.01
739.24	66
739.56	66
739.879	65.97
740.198	66
740.517	65.98
740.836	65.96
741.155	65.97
741.473	65.99
741.792	65.99
742.111	66
742.43	65.99
742.748	65.98
743.067	65.96
743.386	65.94
743.704	65.97
744.023	65.95
744.341	65.93
744.66	65.9
744.978	65.91
745.297	65.92
745.615	65.88
745.933	65.86
746.252	65.86
746.57	65.85
746.888	65.87
747.206	65.89
747.524	65.88
747.842	65.89
748.16	65.87
748.478	65.88
748.796	65.89
749.114	65.86
749.432	65.88
749.749	65.91
750.067	65.9
750.385	65.93
750.703	65.9
751.02	65.89
751.338	65.89
751.655	65.89
751.973	65.88
752.29	65.87
752.608	65.89
752.925	65.92
753.242	65.94
753.56	65.96
753.877	65.94
754.194	65.95
754.511	65.88
754.828	65.85
755.145	65.82
755.462	65.85
755.779	65.85
756.096	65.85
756.413	65.87
756.73	65.84
757.047	65.89
757.364	65.93
757.68	65.98
757.997	65.94
758.314	65.95
758.63	65.95
758.947	65.98
759.264	66
759.58	65.99
759.896	65.93
760.213	65.94
760.529	65.93
760.846	65.93
761.162	65.96
761.478	65.95
761.794	65.94
762.11	65.95
762.426	65.96
762.743	65.93
763.059	65.97
763.375	66
763.69	66.04
764.006	66.08
764.322	66.09
764.638	66.13
764.954	66.14
765.27	66.15
765.585	66.15
765.901	66.14
766.216	66.12
766.532	66.13
766.848	66.13
767.163	66.11
767.478	66.17
767.794	66.2
768.109	66.22
768.424	66.23
768.74	66.25
769.055	66.27
769.37	66.28
769.685	66.27
770	66.27
770.315	66.3
770.63	66.29
770.945	66.27
771.26	66.27
771.575	66.29
771.89	66.26
772.205	66.26
772.52	66.23
772.834	66.32
773.149	66.34
773.464	66.32
773.778	66.33
774.093	66.33
774.407	66.33
774.722	66.27
775.036	66.26
775.351	66.23
775.665	66.25
775.979	66.17
776.293	66.14
776.608	66.14
776.922	66.08
777.236	66.12
777.55	66.07
777.864	66.1
778.178	66.11
778.492	66.08
778.806	66.11
779.12	66.09
779.434	66.08
779.747	66.08
780.061	66.12
780.375	66.1
780.689	66.06
781.002	66.09
781.316	66.08
781.629	66.11
781.943	66.06
782.256	66.07
782.57	66.12
782.883	66.14
783.196	66.12
783.51	66.16
783.823	66.18
784.136	66.2
784.449	66.2
784.762	66.21
785.075	66.22
785.388	66.27
785.701	66.26
786.014	66.18
786.327	66.17
786.64	66.17
786.953	66.19
787.266	66.22
787.578	66.26
787.891	66.28
788.204	66.26
788.516	66.24
788.829	66.28
789.141	66.25
789.454	66.25
789.766	66.27
790.079	66.24
790.391	66.26
790.703	66.27
791.016	66.28
791.328	66.32
791.64	66.29
791.952	66.29
792.264	66.28
792.576	66.26
792.888	66.3
793.2	66.33
793.512	66.33
793.824	66.29
794.136	66.3
794.448	66.33
794.76	66.39
795.071	66.4
795.383	66.34
795.695	66.34
796.006	66.34
796.318	66.25
796.629	66.27
796.941	66.26
797.252	66.26
797.564	66.3
797.875	66.24
798.186	66.21
798.497	66.2
798.809	66.2
799.12	66.24
799.431	66.21
799.742	66.16
800.053	66.1
800.364	66.13
800.675	66.09
800.986	66.1
801.297	66.13
801.608	66.13
801.918	66.13
802.229	66.08
802.54	66.1
802.851	66.12
803.161	66.05
803.472	66.05
803.782	65.96
804.093	65.91
804.403	65.89
804.714	65.88
805.024	65.94
805.334	65.99
805.645	65.9
805.955	65.9
806.265	65.9
806.575	65.94
806.885	65.86
807.195	65.86
807.505	65.88
807.815	65.84
808.125	65.86
808.435	65.81
808.745	65.74
809.055	65.81
809.365	65.86
809.674	65.82
809.984	65.83
810.294	65.78
810.603	65.79
810.913	65.82
811.222	65.83
811.532	65.85
811.841	65.82
812.151	65.94
812.46	65.98
812.769	66.04
813.079	66.06
813.388	66.15
813.697	66.19
814.006	66.24
814.315	66.2
814.624	66.19
814.933	66.14
815.242	66.06
815.551	66.08
815.86	66.14
816.169	66.21
816.478	66.22
816.786	66.3
817.095	66.33
817.404	66.37
817.712	66.3
818.021	66.28
818.33	66.36
818.638	66.35
818.947	66.3
819.255	66.28
819.563	66.34
819.872	66.32
820.18	66.32
820.488	66.34
820.796	66.39
821.105	66.4
821.413	66.44
821.721	66.45
822.029	66.43
822.337	66.46
822.645	66.46
822.953	66.45
823.26	66.47
823.568	66.47
823.876	66.47
824.184	66.48
824.491	66.47
824.799	66.45
825.107	66.45
825.414	66.45
825.722	66.43
826.029	66.42
826.337	66.39
826.644	66.36
826.951	66.37
827.259	66.37
827.566	66.4
827.873	66.4
828.18	66.39
828.488	66.38
828.795	66.37
829.102	66.35
829.409	66.34
829.716	66.31
830.023	66.33
830.329	66.36
830.636	66.39
830.943	66.39
831.25	66.39
831.557	66.36
831.863	66.38
832.17	66.34
832.476	66.35
832.783	66.31
833.089	66.26
833.396	66.19
833.702	66.13
834.009	66.11
834.315	66.1
834.621	66.12
834.928	66.03
835.234	66.07
835.54	66.06
835.846	66.05
836.152	66.06
836.458	66
836.764	65.95
837.07	65.98
837.376	65.95
837.682	65.87
837.988	65.89
838.293	65.84
838.599	65.86
838.905	65.91
839.211	65.95
839.516	65.95
839.822	65.99
840.127	65.96
840.433	65.98
840.738	65.94
841.044	65.96
841.349	65.98
841.654	66.08
841.959	66.02
842.265	66.02
842.57	65.9
842.875	65.89
843.18	65.8
843.485	65.85
843.79	65.92
844.095	66.04
844.4	66
844.705	66.02
845.01	65.99
845.315	65.97
845.619	66
845.924	65.9
846.229	65.96
846.533	65.83
846.838	65.8
847.142	65.82
847.447	65.86
847.751	65.68
848.056	65.67
848.36	65.71
848.664	65.62
848.969	65.53
849.273	65.42
849.577	65.35
849.881	65.11
850.185	65.12
850.489	65.18
850.794	65.35
851.097	65.35
851.401	65.3
851.705	65.33
852.009	65.47
852.313	65.61
852.617	65.84
852.92	65.81
853.224	65.8
853.528	65.7
853.831	65.55
854.135	65.43
854.438	65.35
854.742	65.56
855.045	65.51
855.349	65.53
855.652	65.65
855.955	65.55
856.259	65.5
856.562	65.74
856.865	65.53
857.168	65.48
857.471	65.48
857.774	65.58
858.077	65.46
858.38	65.51
858.683	65.36
858.986	65.38
859.289	65.39
859.592	65.46
859.894	65.73
860.197	65.69
860.5	65.8
860.802	65.89
861.105	65.93
861.407	66.11
861.71	66.13
862.012	66.09
862.315	66.32
862.617	66.19
862.919	65.99
863.222	66.05
863.524	65.91
863.826	66.02
864.128	66.02
864.43	65.95
864.732	65.8
865.034	65.73
865.336	65.67
865.638	65.64
865.94	65.59
866.242	65.63
866.544	65.41
866.846	65.61
867.147	65.16
867.449	65.11
867.751	65.23
868.052	65.13
868.354	65.06
868.655	65.01
868.957	65.04
869.258	65.16
869.56	65.16
869.861	65.17
870.162	65.11
870.463	64.9
870.765	65.05
871.066	65.44
871.367	65.5
871.668	65.48
871.969	65.28
872.27	65.07
872.571	65.11
872.872	65.19
873.173	65.01
873.473	65.13
873.774	65.14
874.075	65.12
874.376	65.1
874.676	65.01
874.977	65.08
875.277	65.07
875.578	64.99
875.878	65.03
876.179	64.9
876.479	64.78
876.78	64.77
877.08	64.79
877.38	64.64
877.68	64.81
877.981	64.81
878.281	64.78
878.581	64.69
