Data from UWBM48344_Reflection_00013.txt Node
Date: Sun May 02 14:02:02 EDT 2021
User: vgr7
Spectrometer: USB2G7710
Scans to average: 10
Trigger mode: 4
Integration Time (sec): 1.000000E-1
Electric dark correction enabled: true
Boxcar width: 20
XAxis mode: Wavelengths
Number of Pixels in Spectrum: 2048
>>>>>Begin Spectral Data<<<<<
177.721	768.52
178.105	2407.41
178.488	736.42
178.871	324.07
179.254	155.11
179.636	97.64
180.019	73.44
180.402	71.01
180.785	68.37
181.168	65.04
181.55	46.97
181.933	45.64
182.316	39.93
182.698	31.4
183.081	29.52
183.463	30.34
183.846	28.12
184.228	27.91
184.611	27.22
184.993	28.06
185.376	25.91
185.758	27.58
186.14	30.25
186.522	29.73
186.904	31.68
187.287	32.66
187.669	31.91
188.051	30.65
188.433	26.83
188.815	25
189.197	24.15
189.579	21.33
189.961	20.33
190.342	17.99
190.724	18.66
191.106	18.48
191.488	17.64
191.869	15.89
192.251	12.9
192.633	10.32
193.014	8.79
193.396	4.07
193.777	4.43
194.159	5.71
194.54	6.95
194.922	6.26
195.303	4.41
195.684	4.4
196.065	3.19
196.447	2.25
196.828	1.84
197.209	2.39
197.59	0.58
197.971	0.02
198.352	2.04
198.733	2.96
199.114	3.22
199.495	3.88
199.876	2.59
200.257	3.65
200.638	1.92
201.018	3.98
201.399	4.73
201.78	3.71
202.16	2.49
202.541	0.58
202.922	0.37
203.302	0.52
203.683	1.14
204.063	3.39
204.444	3.6
204.824	2.88
205.204	2.23
205.585	2.55
205.965	3.67
206.345	3.49
206.725	4.12
207.106	5.57
207.486	5.77
207.866	7
208.246	7.37
208.626	7.74
209.006	9.37
209.386	8.64
209.766	7.62
210.145	6.36
210.525	7.09
210.905	9.43
211.285	8.87
211.664	9.56
212.044	10.14
212.424	9.63
212.803	9.5
213.183	8.93
213.562	10.59
213.942	9.94
214.321	8.61
214.701	8.68
215.08	8.82
215.459	9.67
215.838	7.79
216.218	8.15
216.597	5.88
216.976	5.85
217.355	4.91
217.734	6.01
218.113	7.4
218.492	6.13
218.871	5.75
219.25	5.84
219.629	4.58
220.008	4.18
220.387	3.59
220.766	5.6
221.144	5.34
221.523	4.92
221.902	4.94
222.28	4.75
222.659	3.94
223.037	3.7
223.416	4.16
223.794	4.53
224.173	4.65
224.551	3.42
224.929	4.62
225.308	5.02
225.686	5.38
226.064	5.36
226.442	4.74
226.821	5.45
227.199	5.6
227.577	5.25
227.955	5.55
228.333	5.99
228.711	6
229.089	5.3
229.467	5.3
229.845	5.3
230.222	5.23
230.6	5.09
230.978	5.31
231.356	5.51
231.733	5.47
232.111	5.67
232.488	5.6
232.866	5.4
233.243	5.16
233.621	5.05
233.998	5.23
234.376	5.19
234.753	4.85
235.13	4.94
235.508	5.07
235.885	5.12
236.262	5.01
236.639	5.03
237.016	5.12
237.393	5.1
237.77	5.11
238.147	5.08
238.524	5.05
238.901	5.02
239.278	5.02
239.655	5.03
240.032	5.06
240.409	4.97
240.785	4.98
241.162	4.95
241.539	4.93
241.915	4.91
242.292	4.86
242.668	4.85
243.045	4.81
243.421	4.79
243.798	4.79
244.174	4.83
244.551	4.84
244.927	4.84
245.303	4.84
245.679	4.83
246.056	4.8
246.432	4.8
246.808	4.76
247.184	4.79
247.56	4.76
247.936	4.75
248.312	4.75
248.688	4.77
249.064	4.79
249.44	4.76
249.815	4.73
250.191	4.72
250.567	4.7
250.943	4.67
251.318	4.63
251.694	4.64
252.069	4.6
252.445	4.59
252.82	4.57
253.196	4.54
253.571	4.54
253.947	4.52
254.322	4.48
254.697	4.47
255.073	4.43
255.448	4.45
255.823	4.42
256.198	4.41
256.573	4.38
256.948	4.37
257.323	4.36
257.698	4.33
258.073	4.31
258.448	4.32
258.823	4.3
259.198	4.27
259.573	4.24
259.948	4.25
260.322	4.24
260.697	4.23
261.072	4.21
261.446	4.2
261.821	4.19
262.195	4.19
262.57	4.17
262.944	4.18
263.319	4.17
263.693	4.19
264.067	4.18
264.442	4.16
264.816	4.15
265.19	4.16
265.564	4.16
265.938	4.15
266.313	4.15
266.687	4.15
267.061	4.14
267.435	4.17
267.809	4.15
268.183	4.17
268.556	4.17
268.93	4.16
269.304	4.17
269.678	4.17
270.051	4.16
270.425	4.17
270.799	4.14
271.172	4.14
271.546	4.12
271.919	4.12
272.293	4.11
272.666	4.1
273.04	4.14
273.413	4.16
273.787	4.16
274.16	4.16
274.533	4.17
274.906	4.18
275.279	4.17
275.653	4.17
276.026	4.18
276.399	4.19
276.772	4.21
277.145	4.18
277.518	4.21
277.891	4.22
278.263	4.21
278.636	4.21
279.009	4.18
279.382	4.18
279.755	4.19
280.127	4.21
280.5	4.23
280.872	4.24
281.245	4.26
281.617	4.27
281.99	4.27
282.362	4.28
282.735	4.26
283.107	4.26
283.479	4.26
283.852	4.28
284.224	4.29
284.596	4.29
284.968	4.29
285.34	4.3
285.713	4.3
286.085	4.31
286.457	4.32
286.829	4.32
287.201	4.33
287.572	4.37
287.944	4.38
288.316	4.37
288.688	4.37
289.06	4.39
289.431	4.4
289.803	4.42
290.175	4.44
290.546	4.47
290.918	4.49
291.289	4.52
291.661	4.54
292.032	4.56
292.403	4.59
292.775	4.61
293.146	4.63
293.517	4.66
293.889	4.69
294.26	4.74
294.631	4.77
295.002	4.8
295.373	4.82
295.744	4.83
296.115	4.85
296.486	4.88
296.857	4.91
297.228	4.94
297.599	4.98
297.97	5.01
298.34	5.05
298.711	5.08
299.082	5.09
299.452	5.13
299.823	5.15
300.194	5.19
300.564	5.24
300.935	5.27
301.305	5.31
301.676	5.35
302.046	5.4
302.416	5.44
302.787	5.47
303.157	5.5
303.527	5.55
303.897	5.58
304.267	5.63
304.637	5.67
305.008	5.71
305.378	5.76
305.748	5.79
306.117	5.82
306.487	5.86
306.857	5.92
307.227	5.95
307.597	6
307.967	6.02
308.336	6.06
308.706	6.09
309.076	6.11
309.445	6.14
309.815	6.17
310.184	6.18
310.554	6.21
310.923	6.27
311.293	6.31
311.662	6.33
312.031	6.37
312.401	6.42
312.77	6.45
313.139	6.49
313.508	6.53
313.877	6.57
314.246	6.63
314.616	6.66
314.985	6.71
315.353	6.76
315.722	6.79
316.091	6.83
316.46	6.87
316.829	6.92
317.198	6.97
317.567	7.01
317.935	7.06
318.304	7.11
318.672	7.15
319.041	7.23
319.41	7.27
319.778	7.32
320.147	7.35
320.515	7.39
320.883	7.42
321.252	7.47
321.62	7.51
321.988	7.54
322.357	7.59
322.725	7.63
323.093	7.67
323.461	7.7
323.829	7.75
324.197	7.8
324.565	7.82
324.933	7.86
325.301	7.9
325.669	7.94
326.037	7.96
326.405	8
326.772	8.02
327.14	8.04
327.508	8.04
327.875	8.08
328.243	8.1
328.61	8.11
328.978	8.14
329.346	8.15
329.713	8.18
330.08	8.2
330.448	8.2
330.815	8.22
331.182	8.23
331.55	8.26
331.917	8.27
332.284	8.27
332.651	8.3
333.018	8.32
333.385	8.34
333.752	8.37
334.119	8.37
334.486	8.4
334.853	8.41
335.22	8.44
335.587	8.47
335.954	8.5
336.32	8.51
336.687	8.52
337.054	8.54
337.42	8.56
337.787	8.57
338.153	8.59
338.52	8.61
338.886	8.61
339.253	8.64
339.619	8.67
339.986	8.69
340.352	8.69
340.718	8.71
341.084	8.72
341.451	8.73
341.817	8.75
342.183	8.77
342.549	8.79
342.915	8.81
343.281	8.82
343.647	8.85
344.013	8.86
344.379	8.87
344.745	8.87
345.11	8.87
345.476	8.9
345.842	8.91
346.208	8.93
346.573	8.94
346.939	8.95
347.304	8.96
347.67	8.97
348.035	8.97
348.401	8.99
348.766	8.99
349.132	9.01
349.497	9.01
349.862	9.03
350.228	9.04
350.593	9.03
350.958	9.04
351.323	9.05
351.688	9.06
352.053	9.06
352.418	9.07
352.783	9.07
353.148	9.06
353.513	9.06
353.878	9.05
354.243	9.03
354.608	9.02
354.972	9.02
355.337	9.02
355.702	9
356.066	8.99
356.431	8.98
356.795	8.97
357.16	8.96
357.524	8.95
357.889	8.93
358.253	8.91
358.618	8.88
358.982	8.86
359.346	8.85
359.71	8.84
360.075	8.82
360.439	8.79
360.803	8.78
361.167	8.76
361.531	8.74
361.895	8.72
362.259	8.7
362.623	8.68
362.987	8.66
363.351	8.63
363.714	8.61
364.078	8.57
364.442	8.55
364.806	8.52
365.169	8.5
365.533	8.47
365.896	8.44
366.26	8.41
366.623	8.38
366.987	8.34
367.35	8.31
367.714	8.28
368.077	8.24
368.44	8.2
368.803	8.16
369.167	8.12
369.53	8.07
369.893	8.03
370.256	7.98
370.619	7.94
370.982	7.89
371.345	7.85
371.708	7.81
372.071	7.76
372.434	7.72
372.797	7.67
373.159	7.63
373.522	7.59
373.885	7.55
374.247	7.5
374.61	7.45
374.973	7.4
375.335	7.36
375.698	7.31
376.06	7.26
376.423	7.21
376.785	7.16
377.147	7.11
377.51	7.06
377.872	7.01
378.234	6.96
378.596	6.92
378.958	6.88
379.321	6.82
379.683	6.78
380.045	6.74
380.407	6.7
380.769	6.65
381.13	6.61
381.492	6.57
381.854	6.53
382.216	6.49
382.578	6.46
382.939	6.42
383.301	6.39
383.663	6.36
384.024	6.32
384.386	6.29
384.747	6.25
385.109	6.22
385.47	6.18
385.832	6.14
386.193	6.11
386.554	6.07
386.916	6.03
387.277	6
387.638	5.97
387.999	5.94
388.36	5.91
388.721	5.89
389.082	5.86
389.443	5.83
389.804	5.8
390.165	5.78
390.526	5.75
390.887	5.73
391.248	5.7
391.609	5.68
391.969	5.65
392.33	5.63
392.691	5.6
393.051	5.58
393.412	5.55
393.772	5.52
394.133	5.5
394.493	5.47
394.854	5.44
395.214	5.41
395.574	5.39
395.935	5.36
396.295	5.33
396.655	5.3
397.015	5.28
397.376	5.25
397.736	5.21
398.096	5.19
398.456	5.16
398.816	5.14
399.176	5.11
399.535	5.08
399.895	5.06
400.255	5.03
400.615	5.01
400.975	4.99
401.334	4.97
401.694	4.95
402.054	4.94
402.413	4.91
402.773	4.89
403.132	4.87
403.492	4.86
403.851	4.84
404.211	4.83
404.57	4.81
404.929	4.8
405.288	4.78
405.648	4.77
406.007	4.76
406.366	4.75
406.725	4.74
407.084	4.72
407.443	4.72
407.802	4.71
408.161	4.69
408.52	4.68
408.879	4.67
409.238	4.66
409.596	4.66
409.955	4.65
410.314	4.64
410.673	4.63
411.031	4.63
411.39	4.62
411.748	4.62
412.107	4.61
412.465	4.62
412.824	4.63
413.182	4.64
413.54	4.66
413.899	4.68
414.257	4.7
414.615	4.74
414.974	4.76
415.332	4.79
415.69	4.82
416.048	4.84
416.406	4.88
416.764	4.9
417.122	4.93
417.48	4.95
417.838	4.98
418.195	4.99
418.553	5
418.911	5.01
419.269	5.01
419.626	5
419.984	4.98
420.342	4.96
420.699	4.94
421.057	4.92
421.414	4.89
421.772	4.87
422.129	4.85
422.486	4.83
422.844	4.83
423.201	4.82
423.558	4.81
423.915	4.81
424.273	4.8
424.63	4.79
424.987	4.78
425.344	4.78
425.701	4.77
426.058	4.76
426.415	4.76
426.772	4.75
427.128	4.74
427.485	4.72
427.842	4.7
428.199	4.68
428.555	4.66
428.912	4.63
429.269	4.59
429.625	4.56
429.982	4.53
430.338	4.49
430.695	4.47
431.051	4.42
431.407	4.4
431.764	4.38
432.12	4.35
432.476	4.34
432.832	4.33
433.189	4.33
433.545	4.33
433.901	4.34
434.257	4.36
434.613	4.39
434.969	4.41
435.325	4.44
435.681	4.48
436.036	4.5
436.392	4.52
436.748	4.54
437.104	4.55
437.459	4.57
437.815	4.59
438.171	4.61
438.526	4.64
438.882	4.67
439.237	4.71
439.593	4.75
439.948	4.78
440.304	4.82
440.659	4.84
441.014	4.86
441.369	4.89
441.725	4.91
442.08	4.93
442.435	4.94
442.79	4.95
443.145	4.95
443.5	4.95
443.855	4.95
444.21	4.95
444.565	4.94
444.92	4.93
445.275	4.92
445.629	4.91
445.984	4.89
446.339	4.88
446.693	4.86
447.048	4.84
447.403	4.82
447.757	4.79
448.112	4.77
448.466	4.74
448.82	4.71
449.175	4.68
449.529	4.66
449.883	4.63
450.238	4.6
450.592	4.59
450.946	4.58
451.3	4.57
451.654	4.58
452.008	4.58
452.362	4.58
452.716	4.58
453.07	4.57
453.424	4.56
453.778	4.55
454.132	4.54
454.486	4.52
454.839	4.5
455.193	4.48
455.547	4.46
455.9	4.43
456.254	4.41
456.607	4.38
456.961	4.35
457.314	4.33
457.668	4.32
458.021	4.32
458.375	4.31
458.728	4.31
459.081	4.32
459.434	4.32
459.787	4.33
460.141	4.35
460.494	4.36
460.847	4.37
461.2	4.38
461.553	4.39
461.906	4.39
462.259	4.4
462.611	4.41
462.964	4.42
463.317	4.43
463.67	4.44
464.022	4.45
464.375	4.47
464.728	4.48
465.08	4.48
465.433	4.49
465.785	4.49
466.138	4.48
466.49	4.47
466.843	4.46
467.195	4.45
467.547	4.43
467.899	4.42
468.252	4.4
468.604	4.38
468.956	4.37
469.308	4.35
469.66	4.36
470.012	4.36
470.364	4.37
470.716	4.38
471.068	4.4
471.42	4.43
471.772	4.46
472.123	4.47
472.475	4.49
472.827	4.51
473.178	4.52
473.53	4.53
473.882	4.55
474.233	4.58
474.585	4.62
474.936	4.69
475.288	4.79
475.639	4.92
475.99	5.06
476.342	5.22
476.693	5.4
477.044	5.57
477.395	5.75
477.746	5.93
478.097	6.12
478.448	6.31
478.8	6.49
479.15	6.65
479.501	6.81
479.852	6.95
480.203	7.09
480.554	7.21
480.905	7.33
481.255	7.45
481.606	7.56
481.957	7.66
482.307	7.76
482.658	7.85
483.009	7.94
483.359	8.02
483.709	8.11
484.06	8.19
484.41	8.27
484.761	8.34
485.111	8.42
485.461	8.49
485.811	8.55
486.162	8.61
486.512	8.66
486.862	8.7
487.212	8.73
487.562	8.74
487.912	8.75
488.262	8.76
488.612	8.75
488.961	8.73
489.311	8.69
489.661	8.61
490.011	8.52
490.36	8.41
490.71	8.28
491.06	8.14
491.409	8
491.759	7.85
492.108	7.69
492.458	7.53
492.807	7.35
493.157	7.19
493.506	7.03
493.855	6.88
494.204	6.75
494.554	6.61
494.903	6.5
495.252	6.38
495.601	6.28
495.95	6.17
496.299	6.08
496.648	6
496.997	5.92
497.346	5.86
497.695	5.79
498.043	5.72
498.392	5.67
498.741	5.61
499.09	5.56
499.438	5.52
499.787	5.49
500.135	5.46
500.484	5.44
500.832	5.44
501.181	5.45
501.529	5.48
501.878	5.52
502.226	5.57
502.574	5.63
502.923	5.69
503.271	5.76
503.619	5.83
503.967	5.9
504.315	5.97
504.663	6.05
505.011	6.12
505.359	6.2
505.707	6.28
506.055	6.37
506.403	6.46
506.751	6.55
507.098	6.65
507.446	6.75
507.794	6.86
508.141	6.98
508.489	7.1
508.837	7.23
509.184	7.36
509.531	7.49
509.879	7.63
510.226	7.79
510.574	7.95
510.921	8.11
511.268	8.28
511.616	8.47
511.963	8.65
512.31	8.83
512.657	9.02
513.004	9.21
513.351	9.38
513.698	9.55
514.045	9.71
514.392	9.86
514.739	10.01
515.086	10.15
515.432	10.29
515.779	10.43
516.126	10.58
516.473	10.73
516.819	10.9
517.166	11.09
517.512	11.29
517.859	11.51
518.205	11.74
518.552	11.99
518.898	12.27
519.245	12.58
519.591	12.96
519.937	13.4
520.283	13.91
520.629	14.46
520.976	15.05
521.322	15.65
521.668	16.29
522.014	16.92
522.36	17.55
522.706	18.18
523.052	18.78
523.398	19.35
523.743	19.89
524.089	20.37
524.435	20.82
524.781	21.27
525.126	21.71
525.472	22.14
525.817	22.56
526.163	22.98
526.509	23.38
526.854	23.79
527.199	24.19
527.545	24.6
527.89	25.02
528.235	25.42
528.581	25.81
528.926	26.19
529.271	26.54
529.616	26.88
529.961	27.21
530.306	27.53
530.651	27.83
530.996	28.1
531.341	28.35
531.686	28.58
532.031	28.8
532.376	29.04
532.721	29.31
533.065	29.61
533.41	29.91
533.755	30.19
534.099	30.44
534.444	30.65
534.788	30.84
535.133	31.01
535.477	31.16
535.822	31.28
536.166	31.37
536.51	31.41
536.855	31.4
537.199	31.36
537.543	31.32
537.887	31.3
538.231	31.31
538.576	31.34
538.92	31.34
539.264	31.34
539.608	31.32
539.951	31.29
540.295	31.24
540.639	31.18
540.983	31.1
541.327	31.01
541.671	30.9
542.014	30.83
542.358	30.76
542.701	30.76
543.045	30.82
543.389	30.91
543.732	31.02
544.075	31.14
544.419	31.27
544.762	31.42
545.105	31.57
545.449	31.74
545.792	31.92
546.135	32.1
546.478	32.23
546.821	32.32
547.165	32.36
547.508	32.35
547.851	32.29
548.194	32.2
548.536	32.06
548.879	31.9
549.222	31.72
549.565	31.52
549.908	31.34
550.25	31.18
550.593	31.07
550.936	31.03
551.278	31.03
551.621	31.07
551.963	31.13
552.306	31.21
552.648	31.32
552.991	31.46
553.333	31.61
553.675	31.79
554.017	31.99
554.36	32.22
554.702	32.49
555.044	32.79
555.386	33.13
555.728	33.5
556.07	33.83
556.412	34.17
556.754	34.43
557.096	34.64
557.438	34.86
557.78	35.07
558.121	35.29
558.463	35.51
558.805	35.73
559.147	35.95
559.488	36.17
559.83	36.39
560.171	36.61
560.513	36.81
560.854	37.02
561.196	37.22
561.537	37.42
561.878	37.62
562.22	37.8
562.561	37.99
562.902	38.18
563.243	38.37
563.584	38.56
563.925	38.74
564.266	38.93
564.607	39.11
564.948	39.28
565.289	39.47
565.63	39.65
565.971	39.83
566.312	40.01
566.653	40.18
566.993	40.34
567.334	40.5
567.675	40.66
568.015	40.82
568.356	40.98
568.696	41.12
569.037	41.27
569.377	41.4
569.718	41.54
570.058	41.66
570.398	41.79
570.739	41.9
571.079	42.03
571.419	42.14
571.759	42.27
572.099	42.38
572.439	42.49
572.779	42.6
573.119	42.7
573.459	42.79
573.799	42.89
574.139	42.99
574.479	43.09
574.819	43.2
575.158	43.3
575.498	43.4
575.838	43.49
576.177	43.59
576.517	43.68
576.856	43.77
577.196	43.86
577.535	43.95
577.875	44.04
578.214	44.13
578.553	44.22
578.893	44.3
579.232	44.38
579.571	44.47
579.91	44.54
580.25	44.63
580.589	44.72
580.928	44.81
581.267	44.9
581.606	44.99
581.945	45.07
582.283	45.15
582.622	45.24
582.961	45.34
583.3	45.44
583.639	45.53
583.977	45.61
584.316	45.71
584.654	45.8
584.993	45.9
585.332	45.98
585.67	46.06
586.008	46.13
586.347	46.23
586.685	46.31
587.024	46.39
587.362	46.49
587.7	46.58
588.038	46.68
588.376	46.77
588.715	46.87
589.053	46.97
589.391	47.08
589.729	47.17
590.067	47.27
590.404	47.36
590.742	47.44
591.08	47.53
591.418	47.61
591.756	47.7
592.093	47.78
592.431	47.84
592.769	47.91
593.106	47.98
593.444	48.05
593.781	48.11
594.119	48.18
594.456	48.23
594.793	48.29
595.131	48.35
595.468	48.42
595.805	48.49
596.143	48.56
596.48	48.63
596.817	48.7
597.154	48.78
597.491	48.86
597.828	48.94
598.165	49.01
598.502	49.07
598.839	49.14
599.176	49.2
599.512	49.26
599.849	49.32
600.186	49.37
600.523	49.43
600.859	49.5
601.196	49.54
601.532	49.61
601.869	49.66
602.205	49.72
602.542	49.76
602.878	49.8
603.215	49.85
603.551	49.9
603.887	49.94
604.223	49.99
604.56	50.03
604.896	50.07
605.232	50.11
605.568	50.14
605.904	50.17
606.24	50.22
606.576	50.25
606.912	50.29
607.248	50.32
607.583	50.34
607.919	50.37
608.255	50.4
608.591	50.43
608.926	50.47
609.262	50.49
609.597	50.51
609.933	50.54
610.268	50.56
610.604	50.58
610.939	50.6
611.275	50.61
611.61	50.63
611.945	50.66
612.281	50.68
612.616	50.7
612.951	50.71
613.286	50.73
613.621	50.76
613.956	50.78
614.291	50.81
614.626	50.83
614.961	50.85
615.296	50.87
615.631	50.87
615.966	50.89
616.3	50.91
616.635	50.93
616.97	50.94
617.304	50.97
617.639	50.98
617.973	51
618.308	51.03
618.642	51.05
618.977	51.08
619.311	51.11
619.646	51.15
619.98	51.19
620.314	51.22
620.648	51.26
620.983	51.29
621.317	51.35
621.651	51.38
621.985	51.42
622.319	51.46
622.653	51.49
622.987	51.52
623.321	51.54
623.655	51.58
623.988	51.61
624.322	51.63
624.656	51.65
624.99	51.67
625.323	51.7
625.657	51.71
625.99	51.72
626.324	51.75
626.657	51.78
626.991	51.8
627.324	51.83
627.658	51.86
627.991	51.89
628.324	51.9
628.657	51.93
628.991	51.96
629.324	51.99
629.657	52.02
629.99	52.03
630.323	52.06
630.656	52.08
630.989	52.11
631.322	52.14
631.655	52.15
631.987	52.18
632.32	52.21
632.653	52.21
632.986	52.23
633.318	52.24
633.651	52.26
633.984	52.28
634.316	52.29
634.649	52.3
634.981	52.31
635.313	52.32
635.646	52.32
635.978	52.35
636.31	52.36
636.643	52.38
636.975	52.4
637.307	52.4
637.639	52.43
637.971	52.47
638.303	52.48
638.635	52.5
638.967	52.53
639.299	52.55
639.631	52.59
639.963	52.6
640.295	52.62
640.626	52.65
640.958	52.67
641.29	52.68
641.621	52.7
641.953	52.72
642.285	52.74
642.616	52.75
642.948	52.78
643.279	52.8
643.61	52.82
643.942	52.83
644.273	52.87
644.604	52.88
644.936	52.91
645.267	52.94
645.598	52.96
645.929	52.99
646.26	53.03
646.591	53.06
646.922	53.08
647.253	53.09
647.584	53.12
647.915	53.15
648.245	53.18
648.576	53.2
648.907	53.23
649.238	53.25
649.568	53.26
649.899	53.27
650.229	53.3
650.56	53.32
650.89	53.34
651.221	53.36
651.551	53.37
651.882	53.4
652.212	53.44
652.542	53.47
652.872	53.49
653.203	53.51
653.533	53.53
653.863	53.58
654.193	53.6
654.523	53.62
654.853	53.64
655.183	53.66
655.513	53.68
655.843	53.68
656.172	53.7
656.502	53.7
656.832	53.72
657.162	53.74
657.491	53.76
657.821	53.76
658.15	53.77
658.48	53.78
658.809	53.78
659.139	53.79
659.468	53.78
659.798	53.79
660.127	53.8
660.456	53.83
660.785	53.83
661.115	53.84
661.444	53.85
661.773	53.85
662.102	53.88
662.431	53.89
662.76	53.91
663.089	53.94
663.418	53.96
663.747	53.98
664.076	54.01
664.404	54.03
664.733	54.04
665.062	54.05
665.39	54.07
665.719	54.07
666.048	54.08
666.376	54.09
666.705	54.11
667.033	54.12
667.362	54.12
667.69	54.14
668.018	54.17
668.347	54.18
668.675	54.21
669.003	54.22
669.331	54.24
669.659	54.27
669.987	54.28
670.315	54.3
670.643	54.31
670.971	54.32
671.299	54.37
671.627	54.41
671.955	54.43
672.283	54.46
672.61	54.48
672.938	54.52
673.266	54.55
673.593	54.57
673.921	54.58
674.249	54.61
674.576	54.63
674.904	54.63
675.231	54.66
675.558	54.67
675.886	54.68
676.213	54.68
676.54	54.7
676.867	54.73
677.195	54.73
677.522	54.74
677.849	54.75
678.176	54.77
678.503	54.79
678.83	54.81
679.157	54.83
679.484	54.83
679.81	54.85
680.137	54.85
680.464	54.89
680.791	54.9
681.117	54.9
681.444	54.92
681.771	54.92
682.097	54.93
682.424	54.93
682.75	54.95
683.077	54.95
683.403	54.98
683.729	54.99
684.056	54.99
684.382	55
684.708	55
685.034	55
685.36	55.02
685.686	55.02
686.012	55.03
686.339	55.03
686.664	55.04
686.99	55.04
687.316	55.07
687.642	55.09
687.968	55.11
688.294	55.15
688.619	55.17
688.945	55.2
689.271	55.23
689.596	55.25
689.922	55.26
690.247	55.28
690.573	55.31
690.898	55.35
691.224	55.37
691.549	55.41
691.874	55.41
692.2	55.44
692.525	55.45
692.85	55.5
693.175	55.53
693.5	55.55
693.825	55.55
694.15	55.58
694.475	55.59
694.8	55.58
695.125	55.6
695.45	55.63
695.775	55.65
696.099	55.68
696.424	55.7
696.749	55.73
697.073	55.75
697.398	55.76
697.723	55.8
698.047	55.81
698.372	55.83
698.696	55.85
699.02	55.87
699.345	55.89
699.669	55.91
699.993	55.93
700.318	55.97
700.642	55.98
700.966	55.98
701.29	55.97
701.614	55.97
701.938	55.97
702.262	55.97
702.586	56
702.91	56.01
703.234	56.03
703.557	56.03
703.881	56.06
704.205	56.08
704.529	56.1
704.852	56.1
705.176	56.13
705.499	56.14
705.823	56.17
706.146	56.17
706.47	56.19
706.793	56.2
707.117	56.22
707.44	56.24
707.763	56.27
708.086	56.3
708.409	56.33
708.733	56.37
709.056	56.39
709.379	56.4
709.702	56.38
710.025	56.39
710.348	56.42
710.671	56.45
710.993	56.47
711.316	56.5
711.639	56.52
711.962	56.53
712.284	56.55
712.607	56.56
712.93	56.6
713.252	56.62
713.575	56.64
713.897	56.65
714.22	56.68
714.542	56.71
714.864	56.71
715.187	56.72
715.509	56.73
715.831	56.74
716.153	56.75
716.475	56.79
716.798	56.79
717.12	56.78
717.442	56.77
717.764	56.78
718.085	56.79
718.407	56.81
718.729	56.83
719.051	56.85
719.373	56.86
719.695	56.9
720.016	56.92
720.338	56.93
720.659	56.96
720.981	56.98
721.302	57
721.624	57.01
721.945	57
722.267	57.02
722.588	57.05
722.909	57.09
723.231	57.1
723.552	57.09
723.873	57.1
724.194	57.1
724.515	57.1
724.836	57.12
725.157	57.14
725.478	57.15
725.799	57.18
726.12	57.18
726.441	57.18
726.762	57.18
727.083	57.19
727.403	57.19
727.724	57.21
728.045	57.26
728.365	57.3
728.686	57.3
729.006	57.3
729.327	57.31
729.647	57.31
729.967	57.34
730.288	57.38
730.608	57.36
730.928	57.38
731.249	57.37
731.569	57.39
731.889	57.4
732.209	57.39
732.529	57.41
732.849	57.4
733.169	57.41
733.489	57.43
733.809	57.44
734.129	57.45
734.448	57.46
734.768	57.5
735.088	57.51
735.408	57.52
735.727	57.52
736.047	57.53
736.366	57.54
736.686	57.54
737.005	57.54
737.325	57.56
737.644	57.56
737.963	57.53
738.283	57.54
738.602	57.52
738.921	57.5
739.24	57.51
739.56	57.5
739.879	57.49
740.198	57.49
740.517	57.51
740.836	57.51
741.155	57.51
741.473	57.48
741.792	57.48
742.111	57.5
742.43	57.5
742.748	57.49
743.067	57.47
743.386	57.46
743.704	57.5
744.023	57.49
744.341	57.49
744.66	57.47
744.978	57.45
745.297	57.48
745.615	57.45
745.933	57.45
746.252	57.46
746.57	57.46
746.888	57.46
747.206	57.47
747.524	57.47
747.842	57.42
748.16	57.4
748.478	57.38
748.796	57.37
749.114	57.36
749.432	57.37
749.749	57.36
750.067	57.36
750.385	57.36
750.703	57.41
751.02	57.43
751.338	57.4
751.655	57.44
751.973	57.45
752.29	57.45
752.608	57.47
752.925	57.49
753.242	57.51
753.56	57.52
753.877	57.57
754.194	57.58
754.511	57.63
754.828	57.65
755.145	57.67
755.462	57.68
755.779	57.68
756.096	57.72
756.413	57.72
756.73	57.79
757.047	57.82
757.364	57.84
757.68	57.88
757.997	57.89
758.314	57.89
758.63	57.9
758.947	57.92
759.264	57.93
759.58	57.89
759.896	57.92
760.213	57.95
760.529	57.97
760.846	57.96
761.162	58.01
761.478	58.04
761.794	58.05
762.11	58.11
762.426	58.11
762.743	58.15
763.059	58.17
763.375	58.18
763.69	58.16
764.006	58.19
764.322	58.24
764.638	58.23
764.954	58.24
765.27	58.26
765.585	58.22
765.901	58.2
766.216	58.2
766.532	58.2
766.848	58.21
767.163	58.22
767.478	58.19
767.794	58.21
768.109	58.2
768.424	58.22
768.74	58.25
769.055	58.24
769.37	58.26
769.685	58.21
770	58.19
770.315	58.18
770.63	58.17
770.945	58.18
771.26	58.19
771.575	58.2
771.89	58.21
772.205	58.23
772.52	58.28
772.834	58.28
773.149	58.23
773.464	58.23
773.778	58.26
774.093	58.27
774.407	58.27
774.722	58.29
775.036	58.24
775.351	58.28
775.665	58.27
775.979	58.3
776.293	58.29
776.608	58.32
776.922	58.3
777.236	58.28
777.55	58.28
777.864	58.26
778.178	58.25
778.492	58.33
778.806	58.4
779.12	58.41
779.434	58.4
779.747	58.39
780.061	58.4
780.375	58.44
780.689	58.4
781.002	58.39
781.316	58.39
781.629	58.4
781.943	58.4
782.256	58.38
782.57	58.39
782.883	58.4
783.196	58.43
783.51	58.43
783.823	58.45
784.136	58.48
784.449	58.48
784.762	58.47
785.075	58.46
785.388	58.44
785.701	58.43
786.014	58.5
786.327	58.48
786.64	58.52
786.953	58.49
787.266	58.45
787.578	58.47
787.891	58.45
788.204	58.43
788.516	58.45
788.829	58.44
789.141	58.47
789.454	58.42
789.766	58.4
790.079	58.37
790.391	58.37
790.703	58.43
791.016	58.43
791.328	58.44
791.64	58.38
791.952	58.41
792.264	58.42
792.576	58.38
792.888	58.31
793.2	58.36
793.512	58.4
793.824	58.44
794.136	58.44
794.448	58.42
794.76	58.43
795.071	58.48
795.383	58.49
795.695	58.5
796.006	58.51
796.318	58.56
796.629	58.61
796.941	58.61
797.252	58.63
797.564	58.65
797.875	58.63
798.186	58.68
798.497	58.65
798.809	58.64
799.12	58.65
799.431	58.66
799.742	58.66
800.053	58.76
800.364	58.78
800.675	58.8
800.986	58.85
801.297	58.88
801.608	58.87
801.918	58.85
802.229	58.91
802.54	58.96
802.851	59.04
803.161	59.04
803.472	59.04
803.782	59.07
804.093	59.06
804.403	59.11
804.714	59.12
805.024	59.16
805.334	59.17
805.645	59.23
805.955	59.21
806.265	59.19
806.575	59.19
806.885	59.13
807.195	59.15
807.505	59.18
807.815	59.19
808.125	59.19
808.435	59.24
808.745	59.18
809.055	59.16
809.365	59.11
809.674	59.08
809.984	59.08
810.294	59.06
810.603	59.01
810.913	58.98
811.222	59.02
811.532	58.96
811.841	58.97
812.151	58.97
812.46	58.96
812.769	58.86
813.079	58.85
813.388	58.81
813.697	58.76
814.006	58.75
814.315	58.76
814.624	58.77
814.933	58.74
815.242	58.65
815.551	58.61
815.86	58.68
816.169	58.77
816.478	58.8
816.786	58.81
817.095	58.82
817.404	58.83
817.712	58.86
818.021	58.89
818.33	58.9
818.638	58.95
818.947	58.98
819.255	58.98
819.563	59.03
819.872	59.06
820.18	59.06
820.488	59.09
820.796	59.12
821.105	59.13
821.413	59.15
821.721	59.16
822.029	59.18
822.337	59.22
822.645	59.23
822.953	59.24
823.26	59.3
823.568	59.33
823.876	59.35
824.184	59.35
824.491	59.36
824.799	59.37
825.107	59.4
825.414	59.41
825.722	59.43
826.029	59.45
826.337	59.46
826.644	59.47
826.951	59.48
827.259	59.48
827.566	59.5
827.873	59.52
828.18	59.56
828.488	59.57
828.795	59.55
829.102	59.56
829.409	59.59
829.716	59.64
830.023	59.66
830.329	59.66
830.636	59.69
830.943	59.72
831.25	59.72
831.557	59.73
831.863	59.76
832.17	59.77
832.476	59.76
832.783	59.74
833.089	59.67
833.396	59.66
833.702	59.66
834.009	59.69
834.315	59.7
834.621	59.7
834.928	59.66
835.234	59.64
835.54	59.64
835.846	59.61
836.152	59.56
836.458	59.51
836.764	59.55
837.07	59.52
837.376	59.47
837.682	59.46
837.988	59.47
838.293	59.45
838.599	59.44
838.905	59.42
839.211	59.35
839.516	59.32
839.822	59.35
840.127	59.31
840.433	59.35
840.738	59.28
841.044	59.22
841.349	59.15
841.654	59.18
841.959	59.11
842.265	59.06
842.57	59.08
842.875	59.1
843.18	59.04
843.485	59
843.79	58.97
844.095	59.02
844.4	59.05
844.705	58.96
845.01	58.92
845.315	59.05
845.619	59.13
845.924	59.15
846.229	59.18
846.533	59.12
846.838	59.1
847.142	59.07
847.447	59.12
847.751	59.08
848.056	59.13
848.36	59.09
848.664	59.2
848.969	59.24
849.273	59.3
849.577	59.3
849.881	59.38
850.185	59.4
850.489	59.39
850.794	59.37
851.097	59.47
851.401	59.45
851.705	59.55
852.009	59.76
852.313	59.78
852.617	59.84
852.92	59.71
853.224	59.8
853.528	59.92
853.831	60.2
854.135	60.05
854.438	60.12
854.742	59.96
855.045	59.98
855.349	60.11
855.652	60.16
855.955	60.09
856.259	60.11
856.562	60.17
856.865	60.21
857.168	60.45
857.471	60.52
857.774	60.51
858.077	60.63
858.38	60.65
858.683	60.86
858.986	60.77
859.289	60.85
859.592	60.84
859.894	60.85
860.197	60.97
860.5	60.89
860.802	60.93
861.105	60.86
861.407	60.81
861.71	60.81
862.012	60.97
862.315	60.89
862.617	60.86
862.919	60.86
863.222	60.86
863.524	60.88
863.826	60.89
864.128	60.69
864.43	60.58
864.732	60.41
865.034	60.4
865.336	60.41
865.638	60.41
865.94	60.22
866.242	59.96
866.544	60.13
866.846	60.15
867.147	60.16
867.449	60.26
867.751	60.16
868.052	60.13
868.354	60.34
868.655	60.23
868.957	60.04
869.258	59.89
869.56	59.98
869.861	59.98
870.162	59.86
870.463	59.86
870.765	59.81
871.066	59.63
871.367	59.72
871.668	59.63
871.969	59.47
872.27	59.49
872.571	59.44
872.872	59.5
873.173	59.43
873.473	59.41
873.774	59.53
874.075	59.42
874.376	59.27
874.676	59.28
874.977	59.27
875.277	59.19
875.578	59.23
875.878	59.11
876.179	59.02
876.479	59.34
876.78	59.32
877.08	59.49
877.38	59.45
877.68	59.56
877.981	59.34
878.281	59.57
878.581	59.82
