Data from UWBM59333_Reflection_00015.txt Node
Date: Sun May 02 13:49:29 EDT 2021
User: vgr7
Spectrometer: USB2G7710
Scans to average: 10
Trigger mode: 4
Integration Time (sec): 1.000000E-1
Electric dark correction enabled: true
Boxcar width: 20
XAxis mode: Wavelengths
Number of Pixels in Spectrum: 2048
>>>>>Begin Spectral Data<<<<<
177.721	100.72
178.105	105.32
178.488	85.85
178.871	90.1
179.254	81.33
179.636	82.17
180.019	80.54
180.402	70.05
180.785	56.67
181.168	52.84
181.55	50.34
181.933	51.93
182.316	41.97
182.698	39.37
183.081	38.19
183.463	36.08
183.846	35.35
184.228	34.55
184.611	34.23
184.993	29.2
185.376	27.51
185.758	29.4
186.14	32.38
186.522	29.68
186.904	25.3
187.287	23.77
187.669	22.09
188.051	18.93
188.433	16.78
188.815	15.42
189.197	18.13
189.579	18.09
189.961	18.24
190.342	18.49
190.724	15.1
191.106	16.58
191.488	18.62
191.869	16.09
192.251	13.96
192.633	12.97
193.014	11.71
193.396	11.36
193.777	11.56
194.159	11.17
194.54	9.58
194.922	8.05
195.303	5.93
195.684	4.89
196.065	4.44
196.447	5.26
196.828	5.54
197.209	4.2
197.59	1.84
197.971	1.8
198.352	3.42
198.733	4.04
199.114	6.26
199.495	5.91
199.876	4.87
200.257	4.61
200.638	6.26
201.018	8.85
201.399	9.41
201.78	9.41
202.16	9.42
202.541	9.83
202.922	9.8
203.302	9.72
203.683	11.95
204.063	12.74
204.444	13.52
204.824	13.39
205.204	11.58
205.585	11.72
205.965	11.54
206.345	11.53
206.725	11.43
207.106	9.53
207.486	10.2
207.866	12.16
208.246	12.35
208.626	11.03
209.006	10.94
209.386	10.57
209.766	12
210.145	12.69
210.525	12.97
210.905	13.98
211.285	11.76
211.664	13.65
212.044	13.17
212.424	11.04
212.803	10.75
213.183	10.96
213.562	12.33
213.942	12.07
214.321	10.79
214.701	9.09
215.08	9.59
215.459	10.69
215.838	10.42
216.218	9.1
216.597	6.6
216.976	6.87
217.355	6.81
217.734	6.86
218.113	7.67
218.492	7.89
218.871	8.71
219.25	9.09
219.629	8.4
220.008	8.55
220.387	7.65
220.766	9.22
221.144	8.65
221.523	9.51
221.902	9.89
222.28	9.33
222.659	8.8
223.037	8.2
223.416	7.7
223.794	8.06
224.173	8.82
224.551	7.7
224.929	8.17
225.308	7.21
225.686	7.56
226.064	7.31
226.442	7.47
226.821	7.87
227.199	7.77
227.577	8.22
227.955	8.79
228.333	8.79
228.711	8.21
229.089	7.47
229.467	7.29
229.845	7.27
230.222	7.75
230.6	7.91
230.978	7.62
231.356	7.68
231.733	7.72
232.111	7.64
232.488	7.47
232.866	6.95
233.243	6.54
233.621	6.47
233.998	6.46
234.376	6.47
234.753	6.05
235.13	5.95
235.508	6
235.885	5.91
236.262	5.76
236.639	5.75
237.016	5.64
237.393	5.53
237.77	5.46
238.147	5.56
238.524	5.57
238.901	5.47
239.278	5.32
239.655	5.22
240.032	5.19
240.409	5.14
240.785	5.17
241.162	5.16
241.539	5.11
241.915	5.06
242.292	5.05
242.668	4.96
243.045	4.88
243.421	4.85
243.798	4.85
244.174	4.9
244.551	4.91
244.927	4.89
245.303	4.93
245.679	4.85
246.056	4.79
246.432	4.77
246.808	4.74
247.184	4.72
247.56	4.74
247.936	4.69
248.312	4.7
248.688	4.72
249.064	4.68
249.44	4.66
249.815	4.6
250.191	4.6
250.567	4.64
250.943	4.58
251.318	4.53
251.694	4.53
252.069	4.51
252.445	4.48
252.82	4.48
253.196	4.45
253.571	4.42
253.947	4.39
254.322	4.35
254.697	4.37
255.073	4.36
255.448	4.36
255.823	4.34
256.198	4.32
256.573	4.28
256.948	4.3
257.323	4.29
257.698	4.24
258.073	4.23
258.448	4.23
258.823	4.2
259.198	4.18
259.573	4.15
259.948	4.15
260.322	4.16
260.697	4.12
261.072	4.11
261.446	4.1
261.821	4.11
262.195	4.1
262.57	4.09
262.944	4.08
263.319	4.1
263.693	4.1
264.067	4.08
264.442	4.08
264.816	4.08
265.19	4.09
265.564	4.08
265.938	4.05
266.313	4.07
266.687	4.06
267.061	4.07
267.435	4.06
267.809	4.06
268.183	4.05
268.556	4.05
268.93	4.05
269.304	4.05
269.678	4.07
270.051	4.05
270.425	4.04
270.799	4.02
271.172	4.03
271.546	4.03
271.919	4.01
272.293	4.01
272.666	3.99
273.04	4.01
273.413	4.03
273.787	4.04
274.16	4.05
274.533	4.05
274.906	4.05
275.279	4.05
275.653	4.05
276.026	4.06
276.399	4.07
276.772	4.08
277.145	4.06
277.518	4.07
277.891	4.08
278.263	4.06
278.636	4.05
279.009	4.04
279.382	4.04
279.755	4.04
280.127	4.05
280.5	4.05
280.872	4.08
281.245	4.08
281.617	4.07
281.99	4.1
282.362	4.07
282.735	4.07
283.107	4.08
283.479	4.06
283.852	4.08
284.224	4.09
284.596	4.08
284.968	4.09
285.34	4.09
285.713	4.1
286.085	4.11
286.457	4.11
286.829	4.1
287.201	4.11
287.572	4.11
287.944	4.14
288.316	4.13
288.688	4.13
289.06	4.15
289.431	4.16
289.803	4.18
290.175	4.2
290.546	4.23
290.918	4.24
291.289	4.26
291.661	4.27
292.032	4.28
292.403	4.3
292.775	4.33
293.146	4.35
293.517	4.38
293.889	4.4
294.26	4.43
294.631	4.46
295.002	4.49
295.373	4.5
295.744	4.52
296.115	4.52
296.486	4.56
296.857	4.58
297.228	4.59
297.599	4.64
297.97	4.68
298.34	4.7
298.711	4.76
299.082	4.78
299.452	4.8
299.823	4.84
300.194	4.88
300.564	4.91
300.935	4.94
301.305	4.98
301.676	5.02
302.046	5.07
302.416	5.12
302.787	5.15
303.157	5.18
303.527	5.25
303.897	5.29
304.267	5.33
304.637	5.38
305.008	5.44
305.378	5.47
305.748	5.52
306.117	5.57
306.487	5.64
306.857	5.7
307.227	5.76
307.597	5.82
307.967	5.85
308.336	5.89
308.706	5.94
309.076	5.98
309.445	6.03
309.815	6.07
310.184	6.11
310.554	6.16
310.923	6.23
311.293	6.28
311.662	6.34
312.031	6.4
312.401	6.47
312.77	6.52
313.139	6.57
313.508	6.63
313.877	6.67
314.246	6.72
314.616	6.78
314.985	6.83
315.353	6.88
315.722	6.93
316.091	7.01
316.46	7.05
316.829	7.11
317.198	7.17
317.567	7.23
317.935	7.3
318.304	7.34
318.672	7.41
319.041	7.49
319.41	7.54
319.778	7.61
320.147	7.66
320.515	7.72
320.883	7.76
321.252	7.82
321.62	7.86
321.988	7.91
322.357	7.96
322.725	8
323.093	8.06
323.461	8.11
323.829	8.16
324.197	8.22
324.565	8.25
324.933	8.3
325.301	8.32
325.669	8.38
326.037	8.42
326.405	8.46
326.772	8.49
327.14	8.53
327.508	8.56
327.875	8.58
328.243	8.61
328.61	8.63
328.978	8.66
329.346	8.69
329.713	8.73
330.08	8.76
330.448	8.78
330.815	8.8
331.182	8.82
331.55	8.85
331.917	8.88
332.284	8.88
332.651	8.92
333.018	8.95
333.385	9
333.752	9.02
334.119	9.06
334.486	9.1
334.853	9.12
335.22	9.16
335.587	9.2
335.954	9.24
336.32	9.26
336.687	9.29
337.054	9.31
337.42	9.33
337.787	9.35
338.153	9.37
338.52	9.39
338.886	9.41
339.253	9.44
339.619	9.46
339.986	9.48
340.352	9.52
340.718	9.53
341.084	9.54
341.451	9.56
341.817	9.58
342.183	9.6
342.549	9.62
342.915	9.64
343.281	9.66
343.647	9.68
344.013	9.7
344.379	9.72
344.745	9.73
345.11	9.74
345.476	9.78
345.842	9.79
346.208	9.81
346.573	9.81
346.939	9.82
347.304	9.85
347.67	9.86
348.035	9.87
348.401	9.87
348.766	9.88
349.132	9.88
349.497	9.9
349.862	9.91
350.228	9.92
350.593	9.92
350.958	9.92
351.323	9.93
351.688	9.93
352.053	9.93
352.418	9.92
352.783	9.93
353.148	9.91
353.513	9.92
353.878	9.92
354.243	9.9
354.608	9.9
354.972	9.89
355.337	9.87
355.702	9.87
356.066	9.86
356.431	9.83
356.795	9.81
357.16	9.79
357.524	9.77
357.889	9.76
358.253	9.74
358.618	9.72
358.982	9.69
359.346	9.68
359.71	9.65
360.075	9.63
360.439	9.6
360.803	9.59
361.167	9.56
361.531	9.55
361.895	9.52
362.259	9.49
362.623	9.47
362.987	9.44
363.351	9.41
363.714	9.38
364.078	9.35
364.442	9.32
364.806	9.28
365.169	9.24
365.533	9.2
365.896	9.16
366.26	9.12
366.623	9.08
366.987	9.03
367.35	9
367.714	8.96
368.077	8.91
368.44	8.86
368.803	8.81
369.167	8.75
369.53	8.69
369.893	8.64
370.256	8.58
370.619	8.52
370.982	8.47
371.345	8.4
371.708	8.35
372.071	8.3
372.434	8.23
372.797	8.18
373.159	8.12
373.522	8.07
373.885	8.02
374.247	7.96
374.61	7.9
374.973	7.84
375.335	7.77
375.698	7.71
376.06	7.64
376.423	7.58
376.785	7.52
377.147	7.46
377.51	7.4
377.872	7.35
378.234	7.27
378.596	7.22
378.958	7.16
379.321	7.1
379.683	7.05
380.045	6.99
380.407	6.94
380.769	6.89
381.13	6.84
381.492	6.79
381.854	6.74
382.216	6.69
382.578	6.64
382.939	6.59
383.301	6.55
383.663	6.5
384.024	6.46
384.386	6.41
384.747	6.37
385.109	6.33
385.47	6.29
385.832	6.24
386.193	6.2
386.554	6.15
386.916	6.11
387.277	6.07
387.638	6.03
387.999	5.99
388.36	5.95
388.721	5.91
389.082	5.88
389.443	5.85
389.804	5.81
390.165	5.78
390.526	5.75
390.887	5.72
391.248	5.69
391.609	5.66
391.969	5.62
392.33	5.6
392.691	5.56
393.051	5.54
393.412	5.5
393.772	5.47
394.133	5.43
394.493	5.4
394.854	5.37
395.214	5.33
395.574	5.3
395.935	5.27
396.295	5.23
396.655	5.2
397.015	5.17
397.376	5.14
397.736	5.1
398.096	5.07
398.456	5.04
398.816	5.01
399.176	4.98
399.535	4.95
399.895	4.92
400.255	4.9
400.615	4.87
400.975	4.84
401.334	4.82
401.694	4.79
402.054	4.77
402.413	4.75
402.773	4.73
403.132	4.71
403.492	4.69
403.851	4.66
404.211	4.65
404.57	4.64
404.929	4.61
405.288	4.59
405.648	4.58
406.007	4.57
406.366	4.56
406.725	4.54
407.084	4.53
407.443	4.51
407.802	4.5
408.161	4.49
408.52	4.48
408.879	4.47
409.238	4.45
409.596	4.44
409.955	4.44
410.314	4.43
410.673	4.41
411.031	4.41
411.39	4.41
411.748	4.4
412.107	4.4
412.465	4.4
412.824	4.41
413.182	4.42
413.54	4.44
413.899	4.45
414.257	4.48
414.615	4.5
414.974	4.53
415.332	4.55
415.69	4.59
416.048	4.6
416.406	4.63
416.764	4.65
417.122	4.67
417.48	4.7
417.838	4.72
418.195	4.73
418.553	4.74
418.911	4.74
419.269	4.74
419.626	4.73
419.984	4.71
420.342	4.69
420.699	4.67
421.057	4.64
421.414	4.62
421.772	4.6
422.129	4.58
422.486	4.57
422.844	4.55
423.201	4.54
423.558	4.54
423.915	4.53
424.273	4.52
424.63	4.51
424.987	4.51
425.344	4.5
425.701	4.49
426.058	4.48
426.415	4.47
426.772	4.46
427.128	4.45
427.485	4.43
427.842	4.41
428.199	4.39
428.555	4.36
428.912	4.33
429.269	4.3
429.625	4.27
429.982	4.23
430.338	4.19
430.695	4.17
431.051	4.13
431.407	4.1
431.764	4.08
432.12	4.06
432.476	4.04
432.832	4.03
433.189	4.03
433.545	4.03
433.901	4.04
434.257	4.06
434.613	4.09
434.969	4.11
435.325	4.14
435.681	4.18
436.036	4.2
436.392	4.22
436.748	4.24
437.104	4.25
437.459	4.26
437.815	4.28
438.171	4.3
438.526	4.32
438.882	4.35
439.237	4.39
439.593	4.43
439.948	4.46
440.304	4.49
440.659	4.52
441.014	4.54
441.369	4.56
441.725	4.58
442.08	4.6
442.435	4.61
442.79	4.62
443.145	4.62
443.5	4.62
443.855	4.62
444.21	4.61
444.565	4.61
444.92	4.6
445.275	4.59
445.629	4.58
445.984	4.57
446.339	4.55
446.693	4.54
447.048	4.52
447.403	4.5
447.757	4.47
448.112	4.45
448.466	4.42
448.82	4.39
449.175	4.36
449.529	4.34
449.883	4.31
450.238	4.28
450.592	4.28
450.946	4.26
451.3	4.25
451.654	4.25
452.008	4.25
452.362	4.25
452.716	4.25
453.07	4.25
453.424	4.24
453.778	4.22
454.132	4.21
454.486	4.2
454.839	4.18
455.193	4.15
455.547	4.14
455.9	4.11
456.254	4.09
456.607	4.07
456.961	4.04
457.314	4.02
457.668	4
458.021	4
458.375	3.99
458.728	3.99
459.081	3.99
459.434	4
459.787	4.01
460.141	4.02
460.494	4.03
460.847	4.04
461.2	4.05
461.553	4.06
461.906	4.06
462.259	4.07
462.611	4.08
462.964	4.09
463.317	4.09
463.67	4.1
464.022	4.12
464.375	4.13
464.728	4.14
465.08	4.15
465.433	4.16
465.785	4.16
466.138	4.16
466.49	4.15
466.843	4.14
467.195	4.12
467.547	4.11
467.899	4.09
468.252	4.07
468.604	4.06
468.956	4.04
469.308	4.03
469.66	4.04
470.012	4.04
470.364	4.05
470.716	4.06
471.068	4.08
471.42	4.1
471.772	4.13
472.123	4.15
472.475	4.16
472.827	4.18
473.178	4.19
473.53	4.21
473.882	4.23
474.233	4.25
474.585	4.29
474.936	4.35
475.288	4.45
475.639	4.56
475.99	4.69
476.342	4.84
476.693	4.99
477.044	5.16
477.395	5.32
477.746	5.5
478.097	5.66
478.448	5.84
478.8	6
479.15	6.15
479.501	6.29
479.852	6.42
480.203	6.55
480.554	6.67
480.905	6.78
481.255	6.88
481.606	6.99
481.957	7.08
482.307	7.17
482.658	7.25
483.009	7.33
483.359	7.41
483.709	7.49
484.06	7.56
484.41	7.64
484.761	7.71
485.111	7.77
485.461	7.84
485.811	7.9
486.162	7.95
486.512	8
486.862	8.04
487.212	8.07
487.562	8.08
487.912	8.09
488.262	8.1
488.612	8.09
488.961	8.08
489.311	8.04
489.661	7.97
490.011	7.89
490.36	7.78
490.71	7.67
491.06	7.55
491.409	7.41
491.759	7.28
492.108	7.13
492.458	6.98
492.807	6.83
493.157	6.68
493.506	6.54
493.855	6.4
494.204	6.28
494.554	6.15
494.903	6.04
495.252	5.94
495.601	5.85
495.95	5.76
496.299	5.68
496.648	5.6
496.997	5.54
497.346	5.47
497.695	5.42
498.043	5.36
498.392	5.31
498.741	5.27
499.09	5.23
499.438	5.2
499.787	5.17
500.135	5.15
500.484	5.14
500.832	5.15
501.181	5.16
501.529	5.2
501.878	5.25
502.226	5.3
502.574	5.36
502.923	5.43
503.271	5.51
503.619	5.58
503.967	5.66
504.315	5.75
504.663	5.83
505.011	5.92
505.359	6
505.707	6.1
506.055	6.19
506.403	6.29
506.751	6.41
507.098	6.52
507.446	6.64
507.794	6.76
508.141	6.89
508.489	7.03
508.837	7.17
509.184	7.31
509.531	7.47
509.879	7.63
510.226	7.81
510.574	8
510.921	8.19
511.268	8.4
511.616	8.6
511.963	8.82
512.31	9.04
512.657	9.26
513.004	9.47
513.351	9.69
513.698	9.89
514.045	10.08
514.392	10.26
514.739	10.44
515.086	10.61
515.432	10.79
515.779	10.96
516.126	11.14
516.473	11.33
516.819	11.55
517.166	11.78
517.512	12.02
517.859	12.29
518.205	12.57
518.552	12.87
518.898	13.2
519.245	13.58
519.591	14.02
519.937	14.54
520.283	15.13
520.629	15.77
520.976	16.45
521.322	17.16
521.668	17.88
522.014	18.61
522.36	19.34
522.706	20.06
523.052	20.77
523.398	21.44
523.743	22.05
524.089	22.62
524.435	23.15
524.781	23.67
525.126	24.19
525.472	24.69
525.817	25.18
526.163	25.67
526.509	26.15
526.854	26.62
527.199	27.09
527.545	27.57
527.89	28.06
528.235	28.54
528.581	29
528.926	29.43
529.271	29.84
529.616	30.24
529.961	30.62
530.306	30.98
530.651	31.32
530.996	31.64
531.341	31.93
531.686	32.2
532.031	32.45
532.376	32.73
532.721	33.04
533.065	33.38
533.41	33.73
533.755	34.04
534.099	34.32
534.444	34.57
534.788	34.78
535.133	34.98
535.477	35.14
535.822	35.28
536.166	35.38
536.51	35.42
536.855	35.4
537.199	35.36
537.543	35.3
537.887	35.29
538.231	35.3
538.576	35.32
538.92	35.33
539.264	35.32
539.608	35.29
539.951	35.24
540.295	35.18
540.639	35.11
540.983	35.01
541.327	34.9
541.671	34.77
542.014	34.67
542.358	34.58
542.701	34.57
543.045	34.63
543.389	34.72
543.732	34.83
544.075	34.95
544.419	35.09
544.762	35.25
545.105	35.42
545.449	35.59
545.792	35.78
546.135	35.96
546.478	36.11
546.821	36.2
547.165	36.23
547.508	36.2
547.851	36.13
548.194	36.01
548.536	35.85
548.879	35.65
549.222	35.44
549.565	35.21
549.908	34.99
550.25	34.79
550.593	34.66
550.936	34.59
551.278	34.58
551.621	34.6
551.963	34.66
552.306	34.73
552.648	34.83
552.991	34.96
553.333	35.11
553.675	35.31
554.017	35.52
554.36	35.76
554.702	36.03
555.044	36.34
555.386	36.7
555.728	37.09
556.07	37.43
556.412	37.77
556.754	38.06
557.096	38.28
557.438	38.5
557.78	38.72
558.121	38.95
558.463	39.17
558.805	39.39
559.147	39.6
559.488	39.83
559.83	40.05
560.171	40.26
560.513	40.47
560.854	40.68
561.196	40.87
561.537	41.07
561.878	41.26
562.22	41.44
562.561	41.61
562.902	41.79
563.243	41.97
563.584	42.16
563.925	42.34
564.266	42.52
564.607	42.7
564.948	42.87
565.289	43.05
565.63	43.23
565.971	43.4
566.312	43.56
566.653	43.72
566.993	43.88
567.334	44.03
567.675	44.17
568.015	44.32
568.356	44.46
568.696	44.6
569.037	44.74
569.377	44.87
569.718	45
570.058	45.14
570.398	45.25
570.739	45.36
571.079	45.47
571.419	45.58
571.759	45.69
572.099	45.79
572.439	45.89
572.779	45.99
573.119	46.08
573.459	46.17
573.799	46.26
574.139	46.34
574.479	46.43
574.819	46.53
575.158	46.62
575.498	46.71
575.838	46.8
576.177	46.89
576.517	46.99
576.856	47.07
577.196	47.15
577.535	47.23
577.875	47.3
578.214	47.39
578.553	47.47
578.893	47.55
579.232	47.63
579.571	47.69
579.91	47.76
580.25	47.85
580.589	47.93
580.928	48.02
581.267	48.1
581.606	48.18
581.945	48.25
582.283	48.33
582.622	48.41
582.961	48.48
583.3	48.56
583.639	48.64
583.977	48.71
584.316	48.8
584.654	48.88
584.993	48.95
585.332	49.03
585.67	49.11
586.008	49.19
586.347	49.26
586.685	49.34
587.024	49.43
587.362	49.5
587.7	49.58
588.038	49.67
588.376	49.75
588.715	49.82
589.053	49.91
589.391	49.99
589.729	50.06
590.067	50.14
590.404	50.23
590.742	50.3
591.08	50.37
591.418	50.45
591.756	50.52
592.093	50.58
592.431	50.63
592.769	50.69
593.106	50.75
593.444	50.8
593.781	50.85
594.119	50.9
594.456	50.94
594.793	50.99
595.131	51.03
595.468	51.09
595.805	51.14
596.143	51.21
596.48	51.27
596.817	51.34
597.154	51.42
597.491	51.48
597.828	51.56
598.165	51.61
598.502	51.66
598.839	51.71
599.176	51.77
599.512	51.83
599.849	51.88
600.186	51.92
600.523	51.96
600.859	52
601.196	52.04
601.532	52.09
601.869	52.14
602.205	52.18
602.542	52.23
602.878	52.27
603.215	52.31
603.551	52.35
603.887	52.38
604.223	52.42
604.56	52.46
604.896	52.5
605.232	52.51
605.568	52.55
605.904	52.59
606.24	52.62
606.576	52.65
606.912	52.67
607.248	52.7
607.583	52.73
607.919	52.77
608.255	52.79
608.591	52.82
608.926	52.84
609.262	52.86
609.597	52.89
609.933	52.9
610.268	52.92
610.604	52.93
610.939	52.93
611.275	52.95
611.61	52.95
611.945	52.96
612.281	52.99
612.616	53.01
612.951	53.03
613.286	53.03
613.621	53.06
613.956	53.08
614.291	53.1
614.626	53.12
614.961	53.15
615.296	53.15
615.631	53.18
615.966	53.19
616.3	53.21
616.635	53.23
616.97	53.25
617.304	53.26
617.639	53.29
617.973	53.3
618.308	53.31
618.642	53.33
618.977	53.37
619.311	53.38
619.646	53.4
619.98	53.43
620.314	53.44
620.648	53.48
620.983	53.51
621.317	53.53
621.651	53.56
621.985	53.58
622.319	53.61
622.653	53.64
622.987	53.66
623.321	53.67
623.655	53.69
623.988	53.71
624.322	53.72
624.656	53.74
624.99	53.76
625.323	53.79
625.657	53.8
625.99	53.83
626.324	53.86
626.657	53.86
626.991	53.88
627.324	53.88
627.658	53.91
627.991	53.93
628.324	53.95
628.657	53.96
628.991	53.98
629.324	54
629.657	54.02
629.99	54.03
630.323	54.04
630.656	54.04
630.989	54.06
631.322	54.07
631.655	54.09
631.987	54.1
632.32	54.11
632.653	54.14
632.986	54.16
633.318	54.17
633.651	54.19
633.984	54.2
634.316	54.19
634.649	54.2
634.981	54.22
635.313	54.24
635.646	54.25
635.978	54.27
636.31	54.29
636.643	54.31
636.975	54.33
637.307	54.35
637.639	54.39
637.971	54.41
638.303	54.43
638.635	54.45
638.967	54.47
639.299	54.48
639.631	54.5
639.963	54.49
640.295	54.52
640.626	54.55
640.958	54.58
641.29	54.58
641.621	54.6
641.953	54.61
642.285	54.63
642.616	54.66
642.948	54.66
643.279	54.67
643.61	54.69
643.942	54.71
644.273	54.74
644.604	54.75
644.936	54.77
645.267	54.78
645.598	54.81
645.929	54.84
646.26	54.85
646.591	54.85
646.922	54.88
647.253	54.91
647.584	54.95
647.915	54.98
648.245	55
648.576	55.01
648.907	55.03
649.238	55.06
649.568	55.07
649.899	55.08
650.229	55.09
650.56	55.11
650.89	55.13
651.221	55.13
651.551	55.15
651.882	55.15
652.212	55.16
652.542	55.16
652.872	55.19
653.203	55.2
653.533	55.23
653.863	55.24
654.193	55.27
654.523	55.28
654.853	55.3
655.183	55.32
655.513	55.33
655.843	55.34
656.172	55.34
656.502	55.36
656.832	55.38
657.162	55.39
657.491	55.4
657.821	55.42
658.15	55.45
658.48	55.46
658.809	55.48
659.139	55.49
659.468	55.49
659.798	55.5
660.127	55.52
660.456	55.53
660.785	55.53
661.115	55.53
661.444	55.54
661.773	55.57
662.102	55.59
662.431	55.59
662.76	55.61
663.089	55.61
663.418	55.63
663.747	55.64
664.076	55.67
664.404	55.69
664.733	55.7
665.062	55.72
665.39	55.74
665.719	55.75
666.048	55.79
666.376	55.8
666.705	55.81
667.033	55.83
667.362	55.84
667.69	55.85
668.018	55.86
668.347	55.88
668.675	55.88
669.003	55.89
669.331	55.93
669.659	55.95
669.987	55.96
670.315	55.96
670.643	55.98
670.971	55.99
671.299	56.02
671.627	56.02
671.955	56.04
672.283	56.05
672.61	56.04
672.938	56.05
673.266	56.07
673.593	56.07
673.921	56.09
674.249	56.1
674.576	56.11
674.904	56.12
675.231	56.12
675.558	56.13
675.886	56.14
676.213	56.15
676.54	56.15
676.867	56.15
677.195	56.16
677.522	56.16
677.849	56.15
678.176	56.17
678.503	56.16
678.83	56.18
679.157	56.2
679.484	56.2
679.81	56.21
680.137	56.23
680.464	56.21
680.791	56.24
681.117	56.24
681.444	56.28
681.771	56.28
682.097	56.32
682.424	56.34
682.75	56.33
683.077	56.33
683.403	56.35
683.729	56.36
684.056	56.38
684.382	56.39
684.708	56.39
685.034	56.4
685.36	56.4
685.686	56.41
686.012	56.43
686.339	56.45
686.664	56.44
686.99	56.46
687.316	56.47
687.642	56.49
687.968	56.52
688.294	56.54
688.619	56.55
688.945	56.54
689.271	56.58
689.596	56.57
689.922	56.59
690.247	56.6
690.573	56.63
690.898	56.65
691.224	56.66
691.549	56.69
691.874	56.68
692.2	56.68
692.525	56.68
692.85	56.67
693.175	56.67
693.5	56.67
693.825	56.7
694.15	56.7
694.475	56.7
694.8	56.71
695.125	56.71
695.45	56.72
695.775	56.71
696.099	56.73
696.424	56.74
696.749	56.74
697.073	56.76
697.398	56.77
697.723	56.78
698.047	56.78
698.372	56.79
698.696	56.81
699.02	56.81
699.345	56.81
699.669	56.84
699.993	56.86
700.318	56.86
700.642	56.87
700.966	56.89
701.29	56.89
701.614	56.9
701.938	56.9
702.262	56.91
702.586	56.91
702.91	56.95
703.234	56.96
703.557	56.99
703.881	56.97
704.205	56.97
704.529	57
704.852	57
705.176	57.03
705.499	57.06
705.823	57.1
706.146	57.12
706.47	57.13
706.793	57.16
707.117	57.15
707.44	57.18
707.763	57.19
708.086	57.18
708.409	57.19
708.733	57.19
709.056	57.2
709.379	57.22
709.702	57.27
710.025	57.27
710.348	57.31
710.671	57.3
710.993	57.32
711.316	57.34
711.639	57.36
711.962	57.38
712.284	57.4
712.607	57.42
712.93	57.41
713.252	57.42
713.575	57.43
713.897	57.45
714.22	57.44
714.542	57.46
714.864	57.46
715.187	57.49
715.509	57.52
715.831	57.51
716.153	57.53
716.475	57.54
716.798	57.53
717.12	57.57
717.442	57.58
717.764	57.6
718.085	57.62
718.407	57.63
718.729	57.64
719.051	57.64
719.373	57.68
719.695	57.71
720.016	57.71
720.338	57.72
720.659	57.71
720.981	57.74
721.302	57.76
721.624	57.79
721.945	57.81
722.267	57.84
722.588	57.84
722.909	57.84
723.231	57.84
723.552	57.8
723.873	57.83
724.194	57.83
724.515	57.82
724.836	57.84
725.157	57.81
725.478	57.83
725.799	57.85
726.12	57.88
726.441	57.89
726.762	57.94
727.083	57.95
727.403	57.98
727.724	57.97
728.045	57.98
728.365	57.99
728.686	58.03
729.006	58.06
729.327	58.07
729.647	58.07
729.967	58.1
730.288	58.12
730.608	58.14
730.928	58.12
731.249	58.15
731.569	58.16
731.889	58.14
732.209	58.16
732.529	58.14
732.849	58.15
733.169	58.16
733.489	58.19
733.809	58.2
734.129	58.18
734.448	58.19
734.768	58.2
735.088	58.2
735.408	58.25
735.727	58.27
736.047	58.25
736.366	58.25
736.686	58.28
737.005	58.28
737.325	58.32
737.644	58.35
737.963	58.34
738.283	58.36
738.602	58.37
738.921	58.38
739.24	58.4
739.56	58.4
739.879	58.36
740.198	58.32
740.517	58.31
740.836	58.3
741.155	58.32
741.473	58.31
741.792	58.28
742.111	58.26
742.43	58.19
742.748	58.21
743.067	58.18
743.386	58.18
743.704	58.17
744.023	58.21
744.341	58.19
744.66	58.2
744.978	58.21
745.297	58.2
745.615	58.23
745.933	58.26
746.252	58.26
746.57	58.27
746.888	58.31
747.206	58.33
747.524	58.32
747.842	58.32
748.16	58.33
748.478	58.28
748.796	58.27
749.114	58.31
749.432	58.35
749.749	58.35
750.067	58.33
750.385	58.33
750.703	58.32
751.02	58.33
751.338	58.37
751.655	58.37
751.973	58.35
752.29	58.35
752.608	58.35
752.925	58.36
753.242	58.38
753.56	58.39
753.877	58.43
754.194	58.43
754.511	58.43
754.828	58.46
755.145	58.5
755.462	58.59
755.779	58.61
756.096	58.65
756.413	58.65
756.73	58.66
757.047	58.61
757.364	58.62
757.68	58.64
757.997	58.7
758.314	58.73
758.63	58.73
758.947	58.74
759.264	58.74
759.58	58.74
759.896	58.76
760.213	58.77
760.529	58.78
760.846	58.8
761.162	58.77
761.478	58.82
761.794	58.84
762.11	58.81
762.426	58.81
762.743	58.81
763.059	58.81
763.375	58.79
763.69	58.78
764.006	58.77
764.322	58.75
764.638	58.77
764.954	58.77
765.27	58.78
765.585	58.77
765.901	58.79
766.216	58.79
766.532	58.79
766.848	58.81
767.163	58.79
767.478	58.79
767.794	58.78
768.109	58.76
768.424	58.72
768.74	58.7
769.055	58.69
769.37	58.68
769.685	58.67
770	58.67
770.315	58.68
770.63	58.71
770.945	58.71
771.26	58.69
771.575	58.68
771.89	58.65
772.205	58.64
772.52	58.6
772.834	58.54
773.149	58.53
773.464	58.52
773.778	58.5
774.093	58.49
774.407	58.47
774.722	58.48
775.036	58.5
775.351	58.5
775.665	58.51
775.979	58.54
776.293	58.52
776.608	58.54
776.922	58.59
777.236	58.6
777.55	58.61
777.864	58.61
778.178	58.61
778.492	58.61
778.806	58.61
779.12	58.66
779.434	58.7
779.747	58.66
780.061	58.66
780.375	58.66
780.689	58.64
781.002	58.66
781.316	58.7
781.629	58.71
781.943	58.69
782.256	58.7
782.57	58.67
782.883	58.69
783.196	58.64
783.51	58.55
783.823	58.51
784.136	58.49
784.449	58.49
784.762	58.49
785.075	58.51
785.388	58.54
785.701	58.54
786.014	58.55
786.327	58.53
786.64	58.51
786.953	58.58
787.266	58.56
787.578	58.58
787.891	58.58
788.204	58.55
788.516	58.56
788.829	58.52
789.141	58.56
789.454	58.55
789.766	58.52
790.079	58.53
790.391	58.54
790.703	58.51
791.016	58.49
791.328	58.55
791.64	58.55
791.952	58.54
792.264	58.51
792.576	58.51
792.888	58.53
793.2	58.56
793.512	58.58
793.824	58.57
794.136	58.56
794.448	58.55
794.76	58.59
795.071	58.62
795.383	58.7
795.695	58.67
796.006	58.72
796.318	58.77
796.629	58.79
796.941	58.79
797.252	58.8
797.564	58.81
797.875	58.81
798.186	58.85
798.497	58.84
798.809	58.85
799.12	58.91
799.431	59.03
799.742	58.98
800.053	58.97
800.364	58.95
800.675	58.93
800.986	58.95
801.297	58.98
801.608	59.01
801.918	59.02
802.229	59.02
802.54	59.03
802.851	59
803.161	58.96
803.472	59.03
803.782	59.07
804.093	59.01
804.403	59.01
804.714	58.99
805.024	59.02
805.334	59.02
805.645	58.99
805.955	58.98
806.265	59.02
806.575	59.02
806.885	59.09
807.195	59.1
807.505	59.04
807.815	59
808.125	58.99
808.435	59.02
808.745	58.97
809.055	58.94
809.365	58.96
809.674	59
809.984	59.03
810.294	59.03
810.603	58.98
810.913	58.98
811.222	59.02
811.532	58.97
811.841	58.91
812.151	58.83
812.46	58.84
812.769	58.83
813.079	58.84
813.388	58.89
813.697	58.95
814.006	58.91
814.315	58.96
814.624	58.98
814.933	58.92
815.242	58.95
815.551	58.94
815.86	58.97
816.169	58.93
816.478	58.96
816.786	59.01
817.095	59.03
817.404	59.04
817.712	59.07
818.021	59.12
818.33	59.15
818.638	59.17
818.947	59.15
819.255	59.19
819.563	59.16
819.872	59.2
820.18	59.22
820.488	59.25
820.796	59.31
821.105	59.34
821.413	59.4
821.721	59.44
822.029	59.44
822.337	59.42
822.645	59.43
822.953	59.45
823.26	59.48
823.568	59.5
823.876	59.5
824.184	59.52
824.491	59.54
824.799	59.55
825.107	59.56
825.414	59.55
825.722	59.53
826.029	59.54
826.337	59.54
826.644	59.54
826.951	59.53
827.259	59.52
827.566	59.53
827.873	59.53
828.18	59.54
828.488	59.55
828.795	59.55
829.102	59.57
829.409	59.58
829.716	59.59
830.023	59.6
830.329	59.62
830.636	59.63
830.943	59.67
831.25	59.66
831.557	59.69
831.863	59.71
832.17	59.72
832.476	59.69
832.783	59.71
833.089	59.69
833.396	59.65
833.702	59.63
834.009	59.58
834.315	59.53
834.621	59.53
834.928	59.51
835.234	59.47
835.54	59.46
835.846	59.45
836.152	59.39
836.458	59.43
836.764	59.42
837.07	59.4
837.376	59.38
837.682	59.39
837.988	59.39
838.293	59.47
838.599	59.44
838.905	59.38
839.211	59.39
839.516	59.4
839.822	59.46
840.127	59.49
840.433	59.47
840.738	59.57
841.044	59.54
841.349	59.6
841.654	59.54
841.959	59.52
842.265	59.52
842.57	59.59
842.875	59.53
843.18	59.5
843.485	59.4
843.79	59.47
844.095	59.48
844.4	59.4
844.705	59.49
845.01	59.51
845.315	59.51
845.619	59.53
845.924	59.66
846.229	59.64
846.533	59.68
846.838	59.74
847.142	59.74
847.447	59.94
847.751	60.09
848.056	60.09
848.36	60.14
848.664	60.12
848.969	60.02
849.273	60.05
849.577	60.01
849.881	60.04
850.185	59.97
850.489	59.92
850.794	59.88
851.097	59.82
851.401	60.02
851.705	60.04
852.009	60.07
852.313	59.96
852.617	59.96
852.92	59.99
853.224	59.86
853.528	59.85
853.831	60.03
854.135	60.15
854.438	60.29
854.742	60.24
855.045	60.02
855.349	60.24
855.652	60.16
855.955	60.11
856.259	60.19
856.562	60.22
856.865	60.35
857.168	60.44
857.471	60.52
857.774	60.51
858.077	60.43
858.38	60.24
858.683	60.42
858.986	60.37
859.289	60.3
859.592	60.43
859.894	60.36
860.197	60.19
860.5	60.22
860.802	60.13
861.105	60.29
861.407	60.21
861.71	60.13
862.012	60.07
862.315	60.07
862.617	60.07
862.919	60.23
863.222	60.21
863.524	60.39
863.826	60.33
864.128	60.26
864.43	60.31
864.732	60.45
865.034	60.43
865.336	60.54
865.638	60.47
865.94	60.56
866.242	60.31
866.544	60.25
866.846	60.17
867.147	60.24
867.449	60.31
867.751	60.05
868.052	60.17
868.354	60.21
868.655	60
868.957	59.97
869.258	59.98
869.56	59.88
869.861	59.81
870.162	59.8
870.463	59.9
870.765	59.91
871.066	59.9
871.367	59.83
871.668	59.79
871.969	59.76
872.27	59.65
872.571	59.86
872.872	59.84
873.173	59.91
873.473	59.85
873.774	60
874.075	60.04
874.376	60.22
874.676	60.26
874.977	60.4
875.277	60.4
875.578	60.42
875.878	60.33
876.179	60.3
876.479	60.37
876.78	60.29
877.08	60.14
877.38	60.19
877.68	60.16
877.981	60.13
878.281	60.05
878.581	60.31
