Data from UWBM59333_Reflection_00012.txt Node
Date: Sun May 02 13:49:01 EDT 2021
User: vgr7
Spectrometer: USB2G7710
Scans to average: 10
Trigger mode: 4
Integration Time (sec): 1.000000E-1
Electric dark correction enabled: true
Boxcar width: 20
XAxis mode: Wavelengths
Number of Pixels in Spectrum: 2048
>>>>>Begin Spectral Data<<<<<
177.721	25
178.105	-24.37
178.488	-11.92
178.871	20.31
179.254	7.71
179.636	-9.81
180.019	-5.03
180.402	-15.31
180.785	-14.92
181.168	-9.69
181.55	-7.87
181.933	-1.38
182.316	-3.76
182.698	-4.46
183.081	-5.65
183.463	-7.73
183.846	-6.65
184.228	-1.64
184.611	-2.17
184.993	-2.78
185.376	-4.4
185.758	-1.81
186.14	-1.98
186.522	-1.71
186.904	-2.94
187.287	-0.65
187.669	-0.48
188.051	-0.46
188.433	1.55
188.815	-0.34
189.197	2.52
189.579	2.54
189.961	1.5
190.342	0.64
190.724	1.31
191.106	1.49
191.488	1.62
191.869	0.3
192.251	-0.72
192.633	0.38
193.014	-0.43
193.396	-2.47
193.777	1.13
194.159	1.6
194.54	0.09
194.922	-0.72
195.303	1.16
195.684	2.99
196.065	6.4
196.447	9.27
196.828	9.48
197.209	8.63
197.59	4.91
197.971	5.1
198.352	5.83
198.733	7.82
199.114	8.67
199.495	10.03
199.876	8.79
200.257	9.73
200.638	10.31
201.018	12.31
201.399	12.66
201.78	12.88
202.16	12.78
202.541	12.99
202.922	12.3
203.302	13.52
203.683	14.2
204.063	14.15
204.444	13.67
204.824	12.8
205.204	11.28
205.585	13.12
205.965	15.11
206.345	14.85
206.725	14.56
207.106	14.04
207.486	14.06
207.866	14.87
208.246	14.16
208.626	15.42
209.006	16.57
209.386	14.54
209.766	14.39
210.145	14.46
210.525	16.38
210.905	16.48
211.285	13.47
211.664	12.36
212.044	11.67
212.424	9.93
212.803	10.41
213.183	11.5
213.562	13.79
213.942	13.73
214.321	11.19
214.701	10.1
215.08	9.99
215.459	10.22
215.838	9.43
216.218	9.03
216.597	8.05
216.976	8.76
217.355	8.14
217.734	8.01
218.113	7.86
218.492	7.07
218.871	7.49
219.25	7.04
219.629	7.06
220.008	7.4
220.387	7.01
220.766	8.45
221.144	7.81
221.523	7.89
221.902	8.31
222.28	9.14
222.659	9.85
223.037	9.32
223.416	8.94
223.794	8.72
224.173	7.94
224.551	7.77
224.929	8.84
225.308	8.22
225.686	8.44
226.064	7.71
226.442	7.33
226.821	8.44
227.199	8.37
227.577	7.66
227.955	8.01
228.333	7.98
228.711	7.49
229.089	6.47
229.467	6.3
229.845	6.61
230.222	6.6
230.6	6.2
230.978	6.36
231.356	6.38
231.733	6.14
232.111	6.11
232.488	5.82
232.866	5.79
233.243	5.73
233.621	5.76
233.998	5.72
234.376	5.67
234.753	5.29
235.13	5.2
235.508	5.25
235.885	5.26
236.262	5.11
236.639	5.06
237.016	4.98
237.393	4.98
237.77	4.9
238.147	4.76
238.524	4.9
238.901	4.83
239.278	4.85
239.655	4.87
240.032	4.79
240.409	4.77
240.785	4.88
241.162	4.81
241.539	4.81
241.915	4.82
242.292	4.77
242.668	4.75
243.045	4.76
243.421	4.75
243.798	4.76
244.174	4.8
244.551	4.81
244.927	4.82
245.303	4.83
245.679	4.83
246.056	4.82
246.432	4.8
246.808	4.76
247.184	4.79
247.56	4.82
247.936	4.79
248.312	4.78
248.688	4.77
249.064	4.74
249.44	4.74
249.815	4.69
250.191	4.7
250.567	4.7
250.943	4.65
251.318	4.62
251.694	4.64
252.069	4.61
252.445	4.56
252.82	4.55
253.196	4.52
253.571	4.52
253.947	4.48
254.322	4.47
254.697	4.46
255.073	4.42
255.448	4.42
255.823	4.37
256.198	4.33
256.573	4.33
256.948	4.32
257.323	4.3
257.698	4.28
258.073	4.28
258.448	4.24
258.823	4.22
259.198	4.2
259.573	4.18
259.948	4.18
260.322	4.15
260.697	4.12
261.072	4.11
261.446	4.1
261.821	4.07
262.195	4.06
262.57	4.05
262.944	4.04
263.319	4.06
263.693	4.06
264.067	4.06
264.442	4.05
264.816	4.03
265.19	4.03
265.564	4.03
265.938	4.02
266.313	4.03
266.687	4.03
267.061	4
267.435	4
267.809	4.01
268.183	4
268.556	3.99
268.93	3.98
269.304	3.98
269.678	3.97
270.051	3.95
270.425	3.95
270.799	3.94
271.172	3.96
271.546	3.97
271.919	3.96
272.293	3.97
272.666	3.97
273.04	3.99
273.413	4
273.787	4.03
274.16	4.05
274.533	4.04
274.906	4.05
275.279	4.05
275.653	4.07
276.026	4.08
276.399	4.09
276.772	4.11
277.145	4.11
277.518	4.11
277.891	4.12
278.263	4.1
278.636	4.09
279.009	4.09
279.382	4.08
279.755	4.09
280.127	4.1
280.5	4.1
280.872	4.12
281.245	4.11
281.617	4.13
281.99	4.13
282.362	4.12
282.735	4.14
283.107	4.14
283.479	4.14
283.852	4.16
284.224	4.17
284.596	4.16
284.968	4.16
285.34	4.16
285.713	4.17
286.085	4.18
286.457	4.17
286.829	4.17
287.201	4.17
287.572	4.16
287.944	4.17
288.316	4.15
288.688	4.14
289.06	4.15
289.431	4.15
289.803	4.16
290.175	4.16
290.546	4.17
290.918	4.18
291.289	4.2
291.661	4.19
292.032	4.18
292.403	4.2
292.775	4.23
293.146	4.24
293.517	4.27
293.889	4.29
294.26	4.32
294.631	4.34
295.002	4.37
295.373	4.38
295.744	4.4
296.115	4.41
296.486	4.44
296.857	4.46
297.228	4.48
297.599	4.53
297.97	4.55
298.34	4.55
298.711	4.58
299.082	4.58
299.452	4.61
299.823	4.66
300.194	4.69
300.564	4.71
300.935	4.75
301.305	4.79
301.676	4.82
302.046	4.85
302.416	4.89
302.787	4.92
303.157	4.95
303.527	4.98
303.897	5.02
304.267	5.06
304.637	5.11
305.008	5.16
305.378	5.21
305.748	5.25
306.117	5.28
306.487	5.33
306.857	5.39
307.227	5.44
307.597	5.48
307.967	5.52
308.336	5.57
308.706	5.58
309.076	5.61
309.445	5.64
309.815	5.66
310.184	5.68
310.554	5.73
310.923	5.76
311.293	5.8
311.662	5.82
312.031	5.86
312.401	5.91
312.77	5.94
313.139	5.99
313.508	6.04
313.877	6.08
314.246	6.12
314.616	6.15
314.985	6.19
315.353	6.24
315.722	6.27
316.091	6.31
316.46	6.33
316.829	6.39
317.198	6.44
317.567	6.47
317.935	6.53
318.304	6.58
318.672	6.64
319.041	6.7
319.41	6.74
319.778	6.79
320.147	6.83
320.515	6.86
320.883	6.9
321.252	6.94
321.62	6.98
321.988	7.02
322.357	7.06
322.725	7.12
323.093	7.16
323.461	7.19
323.829	7.24
324.197	7.28
324.565	7.31
324.933	7.35
325.301	7.38
325.669	7.41
326.037	7.45
326.405	7.49
326.772	7.54
327.14	7.56
327.508	7.56
327.875	7.6
328.243	7.6
328.61	7.63
328.978	7.65
329.346	7.69
329.713	7.72
330.08	7.74
330.448	7.74
330.815	7.77
331.182	7.78
331.55	7.81
331.917	7.82
332.284	7.83
332.651	7.86
333.018	7.88
333.385	7.92
333.752	7.94
334.119	7.96
334.486	7.99
334.853	8
335.22	8.04
335.587	8.07
335.954	8.1
336.32	8.11
336.687	8.12
337.054	8.15
337.42	8.19
337.787	8.21
338.153	8.23
338.52	8.26
338.886	8.26
339.253	8.28
339.619	8.31
339.986	8.33
340.352	8.36
340.718	8.38
341.084	8.39
341.451	8.4
341.817	8.41
342.183	8.43
342.549	8.44
342.915	8.45
343.281	8.48
343.647	8.49
344.013	8.5
344.379	8.51
344.745	8.52
345.11	8.54
345.476	8.56
345.842	8.58
346.208	8.59
346.573	8.6
346.939	8.61
347.304	8.64
347.67	8.64
348.035	8.65
348.401	8.65
348.766	8.67
349.132	8.67
349.497	8.68
349.862	8.7
350.228	8.7
350.593	8.71
350.958	8.72
351.323	8.74
351.688	8.75
352.053	8.74
352.418	8.73
352.783	8.71
353.148	8.7
353.513	8.69
353.878	8.69
354.243	8.69
354.608	8.68
354.972	8.68
355.337	8.67
355.702	8.67
356.066	8.65
356.431	8.66
356.795	8.64
357.16	8.63
357.524	8.63
357.889	8.63
358.253	8.61
358.618	8.59
358.982	8.57
359.346	8.56
359.71	8.56
360.075	8.54
360.439	8.52
360.803	8.51
361.167	8.49
361.531	8.47
361.895	8.45
362.259	8.42
362.623	8.41
362.987	8.39
363.351	8.37
363.714	8.34
364.078	8.32
364.442	8.29
364.806	8.26
365.169	8.23
365.533	8.2
365.896	8.16
366.26	8.12
366.623	8.08
366.987	8.04
367.35	8.01
367.714	7.98
368.077	7.95
368.44	7.91
368.803	7.87
369.167	7.82
369.53	7.78
369.893	7.72
370.256	7.67
370.619	7.62
370.982	7.58
371.345	7.53
371.708	7.48
372.071	7.44
372.434	7.39
372.797	7.33
373.159	7.29
373.522	7.25
373.885	7.21
374.247	7.16
374.61	7.1
374.973	7.05
375.335	7
375.698	6.95
376.06	6.9
376.423	6.85
376.785	6.81
377.147	6.76
377.51	6.71
377.872	6.66
378.234	6.61
378.596	6.57
378.958	6.52
379.321	6.47
379.683	6.43
380.045	6.38
380.407	6.35
380.769	6.3
381.13	6.27
381.492	6.22
381.854	6.19
382.216	6.15
382.578	6.11
382.939	6.07
383.301	6.04
383.663	6
384.024	5.96
384.386	5.93
384.747	5.9
385.109	5.86
385.47	5.83
385.832	5.79
386.193	5.75
386.554	5.71
386.916	5.68
387.277	5.64
387.638	5.61
387.999	5.58
388.36	5.55
388.721	5.52
389.082	5.49
389.443	5.47
389.804	5.44
390.165	5.42
390.526	5.39
390.887	5.36
391.248	5.34
391.609	5.31
391.969	5.29
392.33	5.27
392.691	5.24
393.051	5.21
393.412	5.18
393.772	5.16
394.133	5.13
394.493	5.1
394.854	5.08
395.214	5.05
395.574	5.02
395.935	5
396.295	4.97
396.655	4.94
397.015	4.91
397.376	4.88
397.736	4.86
398.096	4.83
398.456	4.8
398.816	4.78
399.176	4.76
399.535	4.73
399.895	4.71
400.255	4.69
400.615	4.66
400.975	4.64
401.334	4.62
401.694	4.6
402.054	4.59
402.413	4.56
402.773	4.54
403.132	4.53
403.492	4.51
403.851	4.49
404.211	4.47
404.57	4.46
404.929	4.44
405.288	4.43
405.648	4.42
406.007	4.41
406.366	4.4
406.725	4.39
407.084	4.37
407.443	4.36
407.802	4.36
408.161	4.35
408.52	4.34
408.879	4.33
409.238	4.33
409.596	4.32
409.955	4.31
410.314	4.3
410.673	4.29
411.031	4.29
411.39	4.29
411.748	4.29
412.107	4.29
412.465	4.29
412.824	4.3
413.182	4.32
413.54	4.33
413.899	4.35
414.257	4.37
414.615	4.41
414.974	4.43
415.332	4.46
415.69	4.49
416.048	4.51
416.406	4.55
416.764	4.57
417.122	4.59
417.48	4.62
417.838	4.64
418.195	4.66
418.553	4.68
418.911	4.69
419.269	4.69
419.626	4.68
419.984	4.66
420.342	4.64
420.699	4.62
421.057	4.6
421.414	4.58
421.772	4.56
422.129	4.54
422.486	4.53
422.844	4.52
423.201	4.51
423.558	4.51
423.915	4.5
424.273	4.5
424.63	4.49
424.987	4.49
425.344	4.48
425.701	4.48
426.058	4.47
426.415	4.47
426.772	4.46
427.128	4.45
427.485	4.43
427.842	4.41
428.199	4.39
428.555	4.37
428.912	4.34
429.269	4.31
429.625	4.28
429.982	4.25
430.338	4.22
430.695	4.19
431.051	4.16
431.407	4.13
431.764	4.11
432.12	4.09
432.476	4.08
432.832	4.07
433.189	4.07
433.545	4.07
433.901	4.08
434.257	4.11
434.613	4.13
434.969	4.15
435.325	4.18
435.681	4.22
436.036	4.24
436.392	4.26
436.748	4.28
437.104	4.29
437.459	4.31
437.815	4.32
438.171	4.34
438.526	4.37
438.882	4.4
439.237	4.43
439.593	4.47
439.948	4.5
440.304	4.54
440.659	4.56
441.014	4.58
441.369	4.61
441.725	4.62
442.08	4.64
442.435	4.66
442.79	4.66
443.145	4.66
443.5	4.67
443.855	4.67
444.21	4.66
444.565	4.66
444.92	4.65
445.275	4.64
445.629	4.63
445.984	4.62
446.339	4.6
446.693	4.58
447.048	4.57
447.403	4.55
447.757	4.52
448.112	4.5
448.466	4.47
448.82	4.45
449.175	4.42
449.529	4.4
449.883	4.38
450.238	4.35
450.592	4.34
450.946	4.32
451.3	4.32
451.654	4.32
452.008	4.32
452.362	4.33
452.716	4.33
453.07	4.32
453.424	4.31
453.778	4.3
454.132	4.29
454.486	4.28
454.839	4.26
455.193	4.23
455.547	4.22
455.9	4.19
456.254	4.17
456.607	4.14
456.961	4.11
457.314	4.09
457.668	4.08
458.021	4.08
458.375	4.07
458.728	4.07
459.081	4.07
459.434	4.08
459.787	4.09
460.141	4.1
460.494	4.11
460.847	4.12
461.2	4.13
461.553	4.14
461.906	4.14
462.259	4.15
462.611	4.16
462.964	4.16
463.317	4.17
463.67	4.18
464.022	4.19
464.375	4.2
464.728	4.21
465.08	4.22
465.433	4.23
465.785	4.23
466.138	4.22
466.49	4.21
466.843	4.19
467.195	4.18
467.547	4.16
467.899	4.14
468.252	4.12
468.604	4.1
468.956	4.09
469.308	4.08
469.66	4.08
470.012	4.08
470.364	4.09
470.716	4.1
471.068	4.12
471.42	4.14
471.772	4.16
472.123	4.18
472.475	4.19
472.827	4.21
473.178	4.22
473.53	4.23
473.882	4.25
474.233	4.28
474.585	4.32
474.936	4.38
475.288	4.47
475.639	4.58
475.99	4.72
476.342	4.87
476.693	5.03
477.044	5.19
477.395	5.36
477.746	5.53
478.097	5.7
478.448	5.88
478.8	6.05
479.15	6.21
479.501	6.35
479.852	6.48
480.203	6.61
480.554	6.74
480.905	6.85
481.255	6.96
481.606	7.07
481.957	7.16
482.307	7.25
482.658	7.34
483.009	7.42
483.359	7.51
483.709	7.59
484.06	7.67
484.41	7.74
484.761	7.81
485.111	7.89
485.461	7.95
485.811	8.01
486.162	8.07
486.512	8.12
486.862	8.16
487.212	8.18
487.562	8.2
487.912	8.21
488.262	8.22
488.612	8.21
488.961	8.19
489.311	8.15
489.661	8.08
490.011	8
490.36	7.9
490.71	7.78
491.06	7.65
491.409	7.52
491.759	7.37
492.108	7.23
492.458	7.07
492.807	6.91
493.157	6.76
493.506	6.61
493.855	6.47
494.204	6.33
494.554	6.21
494.903	6.09
495.252	5.99
495.601	5.88
495.95	5.79
496.299	5.7
496.648	5.62
496.997	5.55
497.346	5.48
497.695	5.41
498.043	5.35
498.392	5.29
498.741	5.24
499.09	5.2
499.438	5.15
499.787	5.12
500.135	5.09
500.484	5.07
500.832	5.07
501.181	5.07
501.529	5.1
501.878	5.14
502.226	5.18
502.574	5.23
502.923	5.29
503.271	5.35
503.619	5.42
503.967	5.49
504.315	5.56
504.663	5.63
505.011	5.7
505.359	5.77
505.707	5.85
506.055	5.94
506.403	6.03
506.751	6.12
507.098	6.22
507.446	6.32
507.794	6.43
508.141	6.54
508.489	6.66
508.837	6.79
509.184	6.92
509.531	7.05
509.879	7.19
510.226	7.35
510.574	7.51
510.921	7.68
511.268	7.85
511.616	8.04
511.963	8.22
512.31	8.42
512.657	8.61
513.004	8.8
513.351	8.99
513.698	9.16
514.045	9.34
514.392	9.5
514.739	9.65
515.086	9.81
515.432	9.96
515.779	10.11
516.126	10.27
516.473	10.44
516.819	10.62
517.166	10.82
517.512	11.04
517.859	11.27
518.205	11.52
518.552	11.79
518.898	12.08
519.245	12.42
519.591	12.81
519.937	13.28
520.283	13.81
520.629	14.38
520.976	14.99
521.322	15.63
521.668	16.28
522.014	16.94
522.36	17.6
522.706	18.25
523.052	18.88
523.398	19.48
523.743	20.04
524.089	20.54
524.435	21.02
524.781	21.49
525.126	21.96
525.472	22.41
525.817	22.86
526.163	23.3
526.509	23.72
526.854	24.14
527.199	24.57
527.545	24.99
527.89	25.44
528.235	25.87
528.581	26.28
528.926	26.67
529.271	27.04
529.616	27.39
529.961	27.74
530.306	28.07
530.651	28.38
530.996	28.66
531.341	28.92
531.686	29.17
532.031	29.39
532.376	29.64
532.721	29.92
533.065	30.22
533.41	30.54
533.755	30.82
534.099	31.08
534.444	31.3
534.788	31.5
535.133	31.68
535.477	31.83
535.822	31.95
536.166	32.04
536.51	32.08
536.855	32.07
537.199	32.03
537.543	31.99
537.887	31.97
538.231	32
538.576	32.03
538.92	32.03
539.264	32.03
539.608	32.01
539.951	31.97
540.295	31.92
540.639	31.86
540.983	31.78
541.327	31.68
541.671	31.57
542.014	31.48
542.358	31.41
542.701	31.4
543.045	31.46
543.389	31.55
543.732	31.66
544.075	31.78
544.419	31.92
544.762	32.07
545.105	32.23
545.449	32.4
545.792	32.57
546.135	32.76
546.478	32.91
546.821	33
547.165	33.04
547.508	33.04
547.851	32.98
548.194	32.88
548.536	32.74
548.879	32.58
549.222	32.4
549.565	32.2
549.908	32.02
550.25	31.86
550.593	31.75
550.936	31.71
551.278	31.72
551.621	31.77
551.963	31.83
552.306	31.91
552.648	32.02
552.991	32.16
553.333	32.33
553.675	32.52
554.017	32.74
554.36	32.99
554.702	33.26
555.044	33.58
555.386	33.95
555.728	34.33
556.07	34.67
556.412	35.03
556.754	35.32
557.096	35.54
557.438	35.78
557.78	36.01
558.121	36.25
558.463	36.48
558.805	36.72
559.147	36.95
559.488	37.2
559.83	37.44
560.171	37.67
560.513	37.89
560.854	38.11
561.196	38.34
561.537	38.55
561.878	38.75
562.22	38.96
562.561	39.15
562.902	39.36
563.243	39.57
563.584	39.77
563.925	39.97
564.266	40.17
564.607	40.36
564.948	40.56
565.289	40.75
565.63	40.94
565.971	41.14
566.312	41.32
566.653	41.51
566.993	41.68
567.334	41.85
567.675	42.02
568.015	42.18
568.356	42.35
568.696	42.51
569.037	42.67
569.377	42.81
569.718	42.97
570.058	43.11
570.398	43.24
570.739	43.38
571.079	43.51
571.419	43.63
571.759	43.75
572.099	43.87
572.439	43.99
572.779	44.11
573.119	44.22
573.459	44.33
573.799	44.44
574.139	44.55
574.479	44.65
574.819	44.76
575.158	44.87
575.498	44.97
575.838	45.09
576.177	45.19
576.517	45.3
576.856	45.4
577.196	45.49
577.535	45.59
577.875	45.68
578.214	45.79
578.553	45.89
578.893	45.98
579.232	46.08
579.571	46.17
579.91	46.26
580.25	46.36
580.589	46.46
580.928	46.56
581.267	46.66
581.606	46.77
581.945	46.88
582.283	46.98
582.622	47.08
582.961	47.18
583.3	47.28
583.639	47.38
583.977	47.48
584.316	47.58
584.654	47.67
584.993	47.78
585.332	47.88
585.67	47.98
586.008	48.07
586.347	48.17
586.685	48.27
587.024	48.37
587.362	48.47
587.7	48.57
588.038	48.67
588.376	48.78
588.715	48.89
589.053	48.99
589.391	49.09
589.729	49.19
590.067	49.28
590.404	49.39
590.742	49.49
591.08	49.59
591.418	49.68
591.756	49.76
592.093	49.85
592.431	49.93
592.769	49.99
593.106	50.07
593.444	50.14
593.781	50.21
594.119	50.29
594.456	50.35
594.793	50.42
595.131	50.48
595.468	50.54
595.805	50.62
596.143	50.69
596.48	50.77
596.817	50.86
597.154	50.95
597.491	51.03
597.828	51.13
598.165	51.21
598.502	51.28
598.839	51.35
599.176	51.42
599.512	51.5
599.849	51.57
600.186	51.64
600.523	51.68
600.859	51.73
601.196	51.78
601.532	51.83
601.869	51.89
602.205	51.94
602.542	52
602.878	52.04
603.215	52.1
603.551	52.16
603.887	52.2
604.223	52.25
604.56	52.3
604.896	52.35
605.232	52.38
605.568	52.44
605.904	52.48
606.24	52.53
606.576	52.57
606.912	52.6
607.248	52.64
607.583	52.68
607.919	52.7
608.255	52.74
608.591	52.78
608.926	52.81
609.262	52.85
609.597	52.87
609.933	52.91
610.268	52.94
610.604	52.95
610.939	52.97
611.275	53
611.61	53.01
611.945	53.04
612.281	53.06
612.616	53.08
612.951	53.1
613.286	53.11
613.621	53.14
613.956	53.17
614.291	53.21
614.626	53.25
614.961	53.28
615.296	53.3
615.631	53.33
615.966	53.35
616.3	53.37
616.635	53.4
616.97	53.43
617.304	53.45
617.639	53.5
617.973	53.52
618.308	53.54
618.642	53.57
618.977	53.62
619.311	53.66
619.646	53.7
619.98	53.72
620.314	53.76
620.648	53.81
620.983	53.84
621.317	53.89
621.651	53.94
621.985	53.97
622.319	54.01
622.653	54.06
622.987	54.09
623.321	54.12
623.655	54.15
623.988	54.18
624.322	54.2
624.656	54.24
624.99	54.27
625.323	54.31
625.657	54.33
625.99	54.36
626.324	54.39
626.657	54.41
626.991	54.44
627.324	54.45
627.658	54.48
627.991	54.5
628.324	54.54
628.657	54.56
628.991	54.59
629.324	54.61
629.657	54.64
629.99	54.66
630.323	54.69
630.656	54.72
630.989	54.74
631.322	54.74
631.655	54.79
631.987	54.81
632.32	54.83
632.653	54.84
632.986	54.86
633.318	54.87
633.651	54.9
633.984	54.92
634.316	54.92
634.649	54.95
634.981	54.95
635.313	54.96
635.646	54.99
635.978	55.01
636.31	55.01
636.643	55.04
636.975	55.04
637.307	55.05
637.639	55.06
637.971	55.09
638.303	55.11
638.635	55.12
638.967	55.14
639.299	55.15
639.631	55.17
639.963	55.2
640.295	55.22
640.626	55.25
640.958	55.28
641.29	55.3
641.621	55.31
641.953	55.34
642.285	55.37
642.616	55.41
642.948	55.45
643.279	55.47
643.61	55.51
643.942	55.52
644.273	55.55
644.604	55.59
644.936	55.62
645.267	55.62
645.598	55.66
645.929	55.69
646.26	55.72
646.591	55.76
646.922	55.79
647.253	55.82
647.584	55.85
647.915	55.89
648.245	55.91
648.576	55.95
648.907	55.99
649.238	56.02
649.568	56.05
649.899	56.09
650.229	56.12
650.56	56.15
650.89	56.18
651.221	56.2
651.551	56.23
651.882	56.24
652.212	56.27
652.542	56.29
652.872	56.32
653.203	56.35
653.533	56.38
653.863	56.42
654.193	56.45
654.523	56.49
654.853	56.51
655.183	56.54
655.513	56.55
655.843	56.57
656.172	56.57
656.502	56.6
656.832	56.62
657.162	56.63
657.491	56.65
657.821	56.68
658.15	56.7
658.48	56.72
658.809	56.76
659.139	56.78
659.468	56.79
659.798	56.81
660.127	56.84
660.456	56.87
660.785	56.9
661.115	56.93
661.444	56.94
661.773	56.97
662.102	56.99
662.431	57
662.76	57.01
663.089	57.02
663.418	57.03
663.747	57.06
664.076	57.08
664.404	57.1
664.733	57.13
665.062	57.16
665.39	57.21
665.719	57.24
666.048	57.27
666.376	57.31
666.705	57.31
667.033	57.33
667.362	57.34
667.69	57.36
668.018	57.38
668.347	57.41
668.675	57.42
669.003	57.46
669.331	57.5
669.659	57.53
669.987	57.53
670.315	57.54
670.643	57.56
670.971	57.58
671.299	57.58
671.627	57.6
671.955	57.61
672.283	57.62
672.61	57.62
672.938	57.63
673.266	57.66
673.593	57.65
673.921	57.64
674.249	57.67
674.576	57.67
674.904	57.68
675.231	57.68
675.558	57.7
675.886	57.72
676.213	57.75
676.54	57.77
676.867	57.79
677.195	57.8
677.522	57.8
677.849	57.81
678.176	57.83
678.503	57.82
678.83	57.82
679.157	57.82
679.484	57.82
679.81	57.85
680.137	57.86
680.464	57.86
680.791	57.89
681.117	57.88
681.444	57.91
681.771	57.91
682.097	57.94
682.424	57.96
682.75	57.95
683.077	57.96
683.403	57.98
683.729	58.01
684.056	58.03
684.382	58.05
684.708	58.07
685.034	58.09
685.36	58.1
685.686	58.11
686.012	58.14
686.339	58.17
686.664	58.16
686.99	58.19
687.316	58.2
687.642	58.21
687.968	58.24
688.294	58.27
688.619	58.29
688.945	58.29
689.271	58.32
689.596	58.31
689.922	58.34
690.247	58.34
690.573	58.34
690.898	58.37
691.224	58.4
691.549	58.41
691.874	58.42
692.2	58.45
692.525	58.48
692.85	58.49
693.175	58.5
693.5	58.52
693.825	58.56
694.15	58.57
694.475	58.59
694.8	58.6
695.125	58.63
695.45	58.62
695.775	58.63
696.099	58.66
696.424	58.68
696.749	58.69
697.073	58.7
697.398	58.7
697.723	58.73
698.047	58.73
698.372	58.74
698.696	58.77
699.02	58.77
699.345	58.77
699.669	58.79
699.993	58.81
700.318	58.84
700.642	58.87
700.966	58.89
701.29	58.89
701.614	58.9
701.938	58.9
702.262	58.93
702.586	58.93
702.91	58.96
703.234	58.98
703.557	59.02
703.881	59.05
704.205	59.06
704.529	59.09
704.852	59.12
705.176	59.15
705.499	59.16
705.823	59.19
706.146	59.2
706.47	59.2
706.793	59.24
707.117	59.23
707.44	59.25
707.763	59.28
708.086	59.29
708.409	59.3
708.733	59.33
709.056	59.34
709.379	59.35
709.702	59.38
710.025	59.39
710.348	59.42
710.671	59.43
710.993	59.43
711.316	59.45
711.639	59.47
711.962	59.5
712.284	59.54
712.607	59.57
712.93	59.57
713.252	59.6
713.575	59.61
713.897	59.63
714.22	59.63
714.542	59.65
714.864	59.67
715.187	59.7
715.509	59.72
715.831	59.74
716.153	59.76
716.475	59.75
716.798	59.76
717.12	59.77
717.442	59.79
717.764	59.81
718.085	59.8
718.407	59.82
718.729	59.85
719.051	59.85
719.373	59.89
719.695	59.92
720.016	59.93
720.338	59.95
720.659	59.95
720.981	59.99
721.302	60.01
721.624	60.02
721.945	60.04
722.267	60.07
722.588	60.1
722.909	60.11
723.231	60.11
723.552	60.09
723.873	60.15
724.194	60.15
724.515	60.19
724.836	60.22
725.157	60.22
725.478	60.22
725.799	60.23
726.12	60.23
726.441	60.25
726.762	60.25
727.083	60.26
727.403	60.28
727.724	60.29
728.045	60.31
728.365	60.33
728.686	60.35
729.006	60.37
729.327	60.39
729.647	60.43
729.967	60.42
730.288	60.45
730.608	60.46
730.928	60.46
731.249	60.49
731.569	60.47
731.889	60.44
732.209	60.48
732.529	60.46
732.849	60.48
733.169	60.5
733.489	60.54
733.809	60.57
734.129	60.54
734.448	60.57
734.768	60.58
735.088	60.58
735.408	60.6
735.727	60.57
736.047	60.6
736.366	60.62
736.686	60.66
737.005	60.65
737.325	60.66
737.644	60.65
737.963	60.63
738.283	60.63
738.602	60.62
738.921	60.63
739.24	60.67
739.56	60.71
739.879	60.72
740.198	60.71
740.517	60.7
740.836	60.69
741.155	60.69
741.473	60.7
741.792	60.7
742.111	60.67
742.43	60.65
742.748	60.62
743.067	60.62
743.386	60.62
743.704	60.6
744.023	60.62
744.341	60.59
744.66	60.64
744.978	60.68
745.297	60.68
745.615	60.7
745.933	60.71
746.252	60.7
746.57	60.67
746.888	60.7
747.206	60.73
747.524	60.72
747.842	60.73
748.16	60.74
748.478	60.71
748.796	60.74
749.114	60.74
749.432	60.74
749.749	60.75
750.067	60.73
750.385	60.73
750.703	60.73
751.02	60.74
751.338	60.75
751.655	60.78
751.973	60.79
752.29	60.77
752.608	60.71
752.925	60.68
753.242	60.7
753.56	60.76
753.877	60.79
754.194	60.84
754.511	60.83
754.828	60.84
755.145	60.87
755.462	60.92
755.779	60.96
756.096	60.99
756.413	61.02
756.73	61.04
757.047	61.05
757.364	61.1
757.68	61.09
757.997	61.14
758.314	61.13
758.63	61.16
758.947	61.19
759.264	61.22
759.58	61.25
759.896	61.29
760.213	61.3
760.529	61.31
760.846	61.35
761.162	61.36
761.478	61.4
761.794	61.4
762.11	61.38
762.426	61.4
762.743	61.43
763.059	61.44
763.375	61.43
763.69	61.46
764.006	61.48
764.322	61.5
764.638	61.52
764.954	61.53
765.27	61.56
765.585	61.59
765.901	61.6
766.216	61.61
766.532	61.59
766.848	61.6
767.163	61.57
767.478	61.55
767.794	61.52
768.109	61.51
768.424	61.47
768.74	61.47
769.055	61.47
769.37	61.46
769.685	61.47
770	61.47
770.315	61.47
770.63	61.51
770.945	61.49
771.26	61.5
771.575	61.5
771.89	61.48
772.205	61.46
772.52	61.43
772.834	61.38
773.149	61.4
773.464	61.36
773.778	61.35
774.093	61.3
774.407	61.29
774.722	61.28
775.036	61.25
775.351	61.27
775.665	61.24
775.979	61.25
776.293	61.24
776.608	61.25
776.922	61.25
777.236	61.21
777.55	61.21
777.864	61.2
778.178	61.18
778.492	61.18
778.806	61.19
779.12	61.19
779.434	61.23
779.747	61.21
780.061	61.26
780.375	61.26
780.689	61.25
781.002	61.29
781.316	61.34
781.629	61.29
781.943	61.31
782.256	61.28
782.57	61.25
782.883	61.26
783.196	61.28
783.51	61.19
783.823	61.21
784.136	61.24
784.449	61.24
784.762	61.24
785.075	61.31
785.388	61.33
785.701	61.32
786.014	61.29
786.327	61.32
786.64	61.31
786.953	61.39
787.266	61.34
787.578	61.35
787.891	61.37
788.204	61.36
788.516	61.4
788.829	61.38
789.141	61.41
789.454	61.37
789.766	61.39
790.079	61.4
790.391	61.39
790.703	61.44
791.016	61.44
791.328	61.43
791.64	61.45
791.952	61.48
792.264	61.39
792.576	61.41
792.888	61.41
793.2	61.46
793.512	61.51
793.824	61.54
794.136	61.51
794.448	61.56
794.76	61.6
795.071	61.59
795.383	61.63
795.695	61.61
796.006	61.61
796.318	61.68
796.629	61.63
796.941	61.59
797.252	61.61
797.564	61.55
797.875	61.5
798.186	61.51
798.497	61.56
798.809	61.6
799.12	61.6
799.431	61.66
799.742	61.64
800.053	61.72
800.364	61.69
800.675	61.72
800.986	61.71
801.297	61.67
801.608	61.74
801.918	61.73
802.229	61.79
802.54	61.76
802.851	61.8
803.161	61.81
803.472	61.8
803.782	61.81
804.093	61.85
804.403	61.88
804.714	61.89
805.024	62
805.334	61.97
805.645	61.99
805.955	61.93
806.265	61.92
806.575	61.88
806.885	61.87
807.195	61.94
807.505	61.88
807.815	61.98
808.125	61.96
808.435	62.01
808.745	61.92
809.055	61.88
809.365	61.98
809.674	61.99
809.984	62.04
810.294	62.1
810.603	62.06
810.913	62.04
811.222	62.04
811.532	61.99
811.841	61.93
812.151	61.89
812.46	61.89
812.769	61.91
813.079	62
813.388	62.03
813.697	62.11
814.006	62.07
814.315	62.05
814.624	62.11
814.933	62.11
815.242	62.15
815.551	62.13
815.86	62.16
816.169	62.17
816.478	62.23
816.786	62.31
817.095	62.34
817.404	62.38
817.712	62.35
818.021	62.37
818.33	62.36
818.638	62.45
818.947	62.46
819.255	62.48
819.563	62.47
819.872	62.46
820.18	62.43
820.488	62.44
820.796	62.48
821.105	62.49
821.413	62.57
821.721	62.61
822.029	62.59
822.337	62.58
822.645	62.58
822.953	62.61
823.26	62.62
823.568	62.63
823.876	62.65
824.184	62.67
824.491	62.7
824.799	62.69
825.107	62.7
825.414	62.7
825.722	62.71
826.029	62.7
826.337	62.69
826.644	62.7
826.951	62.7
827.259	62.69
827.566	62.69
827.873	62.69
828.18	62.69
828.488	62.69
828.795	62.68
829.102	62.68
829.409	62.67
829.716	62.66
830.023	62.63
830.329	62.64
830.636	62.66
830.943	62.69
831.25	62.66
831.557	62.66
831.863	62.7
832.17	62.77
832.476	62.77
832.783	62.8
833.089	62.77
833.396	62.75
833.702	62.72
834.009	62.66
834.315	62.61
834.621	62.61
834.928	62.62
835.234	62.59
835.54	62.54
835.846	62.57
836.152	62.55
836.458	62.49
836.764	62.44
837.07	62.41
837.376	62.39
837.682	62.4
837.988	62.38
838.293	62.4
838.599	62.37
838.905	62.34
839.211	62.34
839.516	62.38
839.822	62.4
840.127	62.44
840.433	62.48
840.738	62.51
841.044	62.52
841.349	62.51
841.654	62.51
841.959	62.41
842.265	62.43
842.57	62.49
842.875	62.55
843.18	62.57
843.485	62.52
843.79	62.56
844.095	62.63
844.4	62.56
844.705	62.46
845.01	62.51
845.315	62.61
845.619	62.65
845.924	62.57
846.229	62.59
846.533	62.56
846.838	62.67
847.142	62.76
847.447	62.75
847.751	62.87
848.056	62.88
848.36	62.89
848.664	62.93
848.969	63.03
849.273	63.13
849.577	63.18
849.881	63.25
850.185	63.12
850.489	63.07
850.794	62.88
851.097	63.04
851.401	63.15
851.705	63.16
852.009	63.08
852.313	63.17
852.617	63.07
852.92	62.82
853.224	62.79
853.528	62.59
853.831	62.69
854.135	62.69
854.438	62.79
854.742	62.72
855.045	62.62
855.349	62.64
855.652	62.65
855.955	62.62
856.259	62.61
856.562	62.65
856.865	62.66
857.168	62.66
857.471	62.51
857.774	62.34
858.077	62.33
858.38	62.49
858.683	62.58
858.986	62.68
859.289	62.63
859.592	62.65
859.894	62.68
860.197	62.57
860.5	62.58
860.802	62.39
861.105	62.43
861.407	62.26
861.71	62.2
862.012	62.22
862.315	62.29
862.617	62.39
862.919	62.51
863.222	62.57
863.524	62.68
863.826	62.72
864.128	62.7
864.43	62.82
864.732	62.73
865.034	62.78
865.336	62.88
865.638	62.88
865.94	62.86
866.242	62.84
866.544	62.95
866.846	62.85
867.147	62.74
867.449	62.82
867.751	62.71
868.052	62.67
868.354	62.66
868.655	62.68
868.957	62.65
869.258	62.65
869.56	62.64
869.861	62.8
870.162	63.06
870.463	63.13
870.765	63.08
871.066	63.16
871.367	63.1
871.668	62.93
871.969	62.79
872.27	62.7
872.571	62.74
872.872	62.83
873.173	62.95
873.473	62.95
873.774	63.01
874.075	63.03
874.376	63.05
874.676	63.06
874.977	63.03
875.277	62.96
875.578	63.03
875.878	62.86
876.179	62.78
876.479	62.8
876.78	62.65
877.08	62.6
877.38	62.54
877.68	62.65
877.981	62.72
878.281	62.98
878.581	63
